# == pyFAI calibration ==
# SplineFile: None
# PixelSize: 1.720e-04, 1.720e-04 m
# PONI: 3.967e-02, 1.276e-02 m
# Distance Sample to Detector: 1.63425336843 m
# Rotations: -0.011112 0.003530 0.000000 rad
# 
# == Fit2d calibration ==
# Distance Sample-beamCenter: 1634.364 mm
# Center: x=179.769, y=264.161 pix
# Tilt: 0.668 deg  TiltPlanRot: 17.625 deg
# 
# Wavelength: 1e-10
# Polarization factor: None
# Normalization factor: None
# --> Pilatus1M.xy
#       2th_deg             I 
  3.270667e-03    1.576671e+01
  9.811999e-03    1.569452e+01
  1.635333e-02    1.553980e+01
  2.289466e-02    1.525530e+01
  2.943600e-02    1.517426e+01
  3.597733e-02    1.562900e+01
  4.251866e-02    1.556252e+01
  4.906000e-02    1.605919e+01
  5.560133e-02    1.601332e+01
  6.214266e-02    1.639365e+01
  6.868399e-02    1.760497e+01
  7.522533e-02    2.204577e+01
  8.176666e-02    6.355511e+01
  8.830799e-02    8.676435e+03
  9.484932e-02    2.966457e+04
  1.013907e-01    4.677797e+04
  1.079320e-01    5.102950e+04
  1.144733e-01    4.916834e+04
  1.210147e-01    5.027954e+04
  1.275560e-01    4.820165e+04
  1.340973e-01    4.355977e+04
  1.406387e-01    3.846659e+04
  1.471800e-01    3.320253e+04
  1.537213e-01    2.895414e+04
  1.602627e-01    2.657529e+04
  1.668040e-01    2.406105e+04
  1.733453e-01    2.143680e+04
  1.798866e-01    1.894846e+04
  1.864280e-01    1.660413e+04
  1.929693e-01    1.452501e+04
  1.995106e-01    1.274208e+04
  2.060520e-01    1.124328e+04
  2.125933e-01    9.967735e+03
  2.191346e-01    8.869457e+03
  2.256760e-01    7.915592e+03
  2.322173e-01    7.097857e+03
  2.387586e-01    6.391480e+03
  2.453000e-01    5.778609e+03
  2.518413e-01    5.243794e+03
  2.583826e-01    4.760776e+03
  2.649240e-01    4.344578e+03
  2.714653e-01    3.975688e+03
  2.780066e-01    3.660573e+03
  2.845480e-01    3.368592e+03
  2.910893e-01    3.104143e+03
  2.976306e-01    2.866588e+03
  3.041720e-01    2.659583e+03
  3.107133e-01    2.481791e+03
  3.172546e-01    2.309890e+03
  3.237960e-01    2.142347e+03
  3.303373e-01    2.000199e+03
  3.368786e-01    1.874645e+03
  3.434200e-01    1.757986e+03
  3.499613e-01    1.647397e+03
  3.565026e-01    1.552941e+03
  3.630440e-01    1.463433e+03
  3.695853e-01    1.379516e+03
  3.761266e-01    1.300790e+03
  3.826680e-01    1.231641e+03
  3.892093e-01    1.167997e+03
  3.957506e-01    1.110040e+03
  4.022920e-01    1.055786e+03
  4.088333e-01    1.007010e+03
  4.153746e-01    9.594937e+02
  4.219160e-01    9.230107e+02
  4.284573e-01    8.810532e+02
  4.349986e-01    8.433277e+02
  4.415400e-01    8.075497e+02
  4.480813e-01    7.741094e+02
  4.546226e-01    7.433896e+02
  4.611640e-01    7.158104e+02
  4.677053e-01    6.876479e+02
  4.742466e-01    6.638129e+02
  4.807880e-01    6.408682e+02
  4.873293e-01    6.199602e+02
  4.938706e-01    6.006613e+02
  5.004120e-01    5.829201e+02
  5.069533e-01    5.654520e+02
  5.134946e-01    5.505859e+02
  5.200359e-01    5.366434e+02
  5.265773e-01    5.250728e+02
  5.331186e-01    5.137363e+02
  5.396599e-01    5.030594e+02
  5.462013e-01    4.942838e+02
  5.527426e-01    4.846152e+02
  5.592839e-01    4.761507e+02
  5.658253e-01    4.696018e+02
  5.723666e-01    4.628800e+02
  5.789079e-01    4.580553e+02
  5.854493e-01    4.541685e+02
  5.919906e-01    4.513900e+02
  5.985319e-01    4.500922e+02
  6.050733e-01    4.483787e+02
  6.116146e-01    4.476256e+02
  6.181559e-01    4.497821e+02
  6.246973e-01    4.514757e+02
  6.312386e-01    4.552418e+02
  6.377799e-01    4.603459e+02
  6.443213e-01    4.666751e+02
  6.508626e-01    4.756637e+02
  6.574039e-01    4.859981e+02
  6.639453e-01    4.991906e+02
  6.704866e-01    5.128733e+02
  6.770279e-01    5.259382e+02
  6.835693e-01    5.436139e+02
  6.901106e-01    5.580864e+02
  6.966519e-01    5.744907e+02
  7.031933e-01    5.855897e+02
  7.097346e-01    5.949408e+02
  7.162759e-01    5.982881e+02
  7.228173e-01    5.975201e+02
  7.293586e-01    5.907585e+02
  7.358999e-01    5.797114e+02
  7.424413e-01    5.659484e+02
  7.489826e-01    5.529226e+02
  7.555239e-01    5.369730e+02
  7.620653e-01    5.213610e+02
  7.686066e-01    5.089918e+02
  7.751479e-01    4.978777e+02
  7.816893e-01    4.896057e+02
  7.882306e-01    4.859065e+02
  7.947719e-01    4.851586e+02
  8.013133e-01    4.852903e+02
  8.078546e-01    4.897886e+02
  8.143959e-01    4.990940e+02
  8.209373e-01    5.126208e+02
  8.274786e-01    5.303847e+02
  8.340199e-01    5.527762e+02
  8.405613e-01    5.810361e+02
  8.471026e-01    6.150864e+02
  8.536439e-01    6.578871e+02
  8.601853e-01    7.098728e+02
  8.667266e-01    7.697789e+02
  8.732679e-01    8.432629e+02
  8.798092e-01    9.332145e+02
  8.863506e-01    1.045692e+03
  8.928919e-01    1.181647e+03
  8.994332e-01    1.353200e+03
  9.059746e-01    1.568448e+03
  9.125159e-01    1.843147e+03
  9.190572e-01    2.200374e+03
  9.255986e-01    2.678237e+03
  9.321399e-01    3.328263e+03
  9.386812e-01    4.255411e+03
  9.452226e-01    5.620687e+03
  9.517639e-01    7.701773e+03
  9.583052e-01    1.092149e+04
  9.648466e-01    1.566618e+04
  9.713879e-01    2.147363e+04
  9.779292e-01    2.614535e+04
  9.844706e-01    2.600956e+04
  9.910119e-01    2.062682e+04
  9.975532e-01    1.408836e+04
  1.004095e+00    9.211373e+03
  1.010636e+00    6.127055e+03
  1.017177e+00    4.253445e+03
  1.023719e+00    3.102943e+03
  1.030260e+00    2.365990e+03
  1.036801e+00    1.868546e+03
  1.043343e+00    1.517772e+03
  1.049884e+00    1.258776e+03
  1.056425e+00    1.065145e+03
  1.062967e+00    9.149562e+02
  1.069508e+00    7.977042e+02
  1.076049e+00    7.048700e+02
  1.082591e+00    6.292797e+02
  1.089132e+00    5.659122e+02
  1.095673e+00    5.125800e+02
  1.102215e+00    4.689751e+02
  1.108756e+00    4.335347e+02
  1.115297e+00    4.028128e+02
  1.121839e+00    3.774656e+02
  1.128380e+00    3.569907e+02
  1.134921e+00    3.413374e+02
  1.141463e+00    3.306949e+02
  1.148004e+00    3.257932e+02
  1.154545e+00    3.272943e+02
  1.161087e+00    3.374646e+02
  1.167628e+00    3.552799e+02
  1.174169e+00    3.785201e+02
  1.180711e+00    3.939602e+02
  1.187252e+00    3.858987e+02
  1.193793e+00    3.502759e+02
  1.200335e+00    3.023487e+02
  1.206876e+00    2.586646e+02
  1.213417e+00    2.249515e+02
  1.219959e+00    2.003007e+02
  1.226500e+00    1.817729e+02
  1.233041e+00    1.678536e+02
  1.239583e+00    1.569204e+02
  1.246124e+00    1.483679e+02
  1.252665e+00    1.415601e+02
  1.259207e+00    1.355267e+02
  1.265748e+00    1.299229e+02
  1.272289e+00    1.252688e+02
  1.278831e+00    1.216559e+02
  1.285372e+00    1.178430e+02
  1.291913e+00    1.145317e+02
  1.298455e+00    1.113164e+02
  1.304996e+00    1.091107e+02
  1.311537e+00    1.064160e+02
  1.318079e+00    1.044663e+02
  1.324620e+00    1.022039e+02
  1.331161e+00    1.004788e+02
  1.337703e+00    9.831049e+01
  1.344244e+00    9.654448e+01
  1.350785e+00    9.551597e+01
  1.357327e+00    9.433311e+01
  1.363868e+00    9.310478e+01
  1.370409e+00    9.201398e+01
  1.376951e+00    9.066203e+01
  1.383492e+00    8.957098e+01
  1.390033e+00    8.875155e+01
  1.396575e+00    8.816463e+01
  1.403116e+00    8.727336e+01
  1.409657e+00    8.670016e+01
  1.416199e+00    8.595076e+01
  1.422740e+00    8.502006e+01
  1.429281e+00    8.402335e+01
  1.435823e+00    8.334224e+01
  1.442364e+00    8.285988e+01
  1.448905e+00    8.197974e+01
  1.455447e+00    8.156130e+01
  1.461988e+00    8.064383e+01
  1.468529e+00    8.023124e+01
  1.475071e+00    7.939689e+01
  1.481612e+00    7.846611e+01
  1.488153e+00    7.828720e+01
  1.494695e+00    7.797851e+01
  1.501236e+00    7.743535e+01
  1.507777e+00    7.685228e+01
  1.514319e+00    7.665622e+01
  1.520860e+00    7.602341e+01
  1.527401e+00    7.579719e+01
  1.533943e+00    7.575626e+01
  1.540484e+00    7.545978e+01
  1.547025e+00    7.533613e+01
  1.553567e+00    7.512746e+01
  1.560108e+00    7.488294e+01
  1.566649e+00    7.460461e+01
  1.573191e+00    7.448216e+01
  1.579732e+00    7.447528e+01
  1.586273e+00    7.461427e+01
  1.592815e+00    7.463444e+01
  1.599356e+00    7.440927e+01
  1.605897e+00    7.372737e+01
  1.612439e+00    7.353786e+01
  1.618980e+00    7.390242e+01
  1.625521e+00    7.374394e+01
  1.632063e+00    7.353779e+01
  1.638604e+00    7.347809e+01
  1.645145e+00    7.360577e+01
  1.651687e+00    7.332375e+01
  1.658228e+00    7.322366e+01
  1.664769e+00    7.330875e+01
  1.671311e+00    7.309141e+01
  1.677852e+00    7.320069e+01
  1.684393e+00    7.358146e+01
  1.690935e+00    7.376452e+01
  1.697476e+00    7.380599e+01
  1.704017e+00    7.404815e+01
  1.710559e+00    7.439890e+01
  1.717100e+00    7.487051e+01
  1.723641e+00    7.565926e+01
  1.730182e+00    7.637434e+01
  1.736724e+00    7.691424e+01
  1.743265e+00    7.787092e+01
  1.749806e+00    7.908218e+01
  1.756348e+00    8.039409e+01
  1.762889e+00    8.217093e+01
  1.769430e+00    8.423033e+01
  1.775972e+00    8.605642e+01
  1.782513e+00    8.850029e+01
  1.789054e+00    9.139487e+01
  1.795596e+00    9.528712e+01
  1.802137e+00    9.925676e+01
  1.808678e+00    1.040044e+02
  1.815220e+00    1.089915e+02
  1.821761e+00    1.155016e+02
  1.828302e+00    1.229378e+02
  1.834844e+00    1.318287e+02
  1.841385e+00    1.419612e+02
  1.847926e+00    1.555498e+02
  1.854468e+00    1.707929e+02
  1.861009e+00    1.885609e+02
  1.867550e+00    2.103158e+02
  1.874092e+00    2.378943e+02
  1.880633e+00    2.718189e+02
  1.887174e+00    3.134273e+02
  1.893716e+00    3.686447e+02
  1.900257e+00    4.408932e+02
  1.906798e+00    5.319518e+02
  1.913340e+00    6.542423e+02
  1.919881e+00    8.184990e+02
  1.926422e+00    1.047003e+03
  1.932964e+00    1.375204e+03
  1.939505e+00    1.864711e+03
  1.946046e+00    2.566761e+03
  1.952588e+00    3.450751e+03
  1.959129e+00    4.269795e+03
  1.965670e+00    4.394010e+03
  1.972212e+00    3.507162e+03
  1.978753e+00    2.327680e+03
  1.985294e+00    1.478346e+03
  1.991836e+00    9.793184e+02
  1.998377e+00    6.901285e+02
  2.004918e+00    5.137509e+02
  2.011460e+00    4.007589e+02
  2.018001e+00    3.247734e+02
  2.024542e+00    2.697105e+02
  2.031084e+00    2.309467e+02
  2.037625e+00    2.018719e+02
  2.044166e+00    1.792415e+02
  2.050708e+00    1.616606e+02
  2.057249e+00    1.476579e+02
  2.063790e+00    1.366008e+02
  2.070332e+00    1.275566e+02
  2.076873e+00    1.206440e+02
  2.083414e+00    1.152486e+02
  2.089956e+00    1.099433e+02
  2.096497e+00    1.060310e+02
  2.103038e+00    1.027209e+02
  2.109580e+00    1.000379e+02
  2.116121e+00    9.809840e+01
  2.122662e+00    9.629383e+01
  2.129204e+00    9.510532e+01
  2.135745e+00    9.387926e+01
  2.142286e+00    9.168903e+01
  2.148828e+00    9.004762e+01
  2.155369e+00    8.791367e+01
  2.161910e+00    8.519692e+01
  2.168452e+00    8.295287e+01
  2.174993e+00    8.098500e+01
  2.181534e+00    7.816553e+01
  2.188076e+00    7.534523e+01
  2.194617e+00    7.341408e+01
  2.201158e+00    7.106710e+01
  2.207700e+00    6.862602e+01
  2.214241e+00    6.655357e+01
  2.220782e+00    6.488181e+01
  2.227324e+00    6.303355e+01
  2.233865e+00    6.214070e+01
  2.240406e+00    6.119342e+01
  2.246948e+00    5.987676e+01
  2.253489e+00    5.880452e+01
  2.260030e+00    5.785689e+01
  2.266572e+00    5.658916e+01
  2.273113e+00    5.620178e+01
  2.279654e+00    5.562894e+01
  2.286196e+00    5.469097e+01
  2.292737e+00    5.415034e+01
  2.299278e+00    5.357269e+01
  2.305820e+00    5.323409e+01
  2.312361e+00    5.270589e+01
  2.318902e+00    5.233108e+01
  2.325444e+00    5.212724e+01
  2.331985e+00    5.189645e+01
  2.338526e+00    5.145096e+01
  2.345068e+00    5.161152e+01
  2.351609e+00    5.145322e+01
  2.358150e+00    5.181001e+01
  2.364692e+00    5.187074e+01
  2.371233e+00    5.176075e+01
  2.377774e+00    5.051647e+01
  2.384316e+00    4.964514e+01
  2.390857e+00    4.903189e+01
  2.397398e+00    4.853228e+01
  2.403940e+00    4.783883e+01
  2.410481e+00    4.753884e+01
  2.417022e+00    4.750500e+01
  2.423564e+00    4.705141e+01
  2.430105e+00    4.669197e+01
  2.436646e+00    4.693368e+01
  2.443188e+00    4.679900e+01
  2.449729e+00    4.633792e+01
  2.456270e+00    4.630965e+01
  2.462812e+00    4.632945e+01
  2.469353e+00    4.595750e+01
  2.475894e+00    4.591513e+01
  2.482436e+00    4.602705e+01
  2.488977e+00    4.620028e+01
  2.495518e+00    4.597942e+01
  2.502060e+00    4.625627e+01
  2.508601e+00    4.588610e+01
  2.515142e+00    4.587619e+01
  2.521684e+00    4.603373e+01
  2.528225e+00    4.595419e+01
  2.534766e+00    4.611846e+01
  2.541308e+00    4.644426e+01
  2.547849e+00    4.658088e+01
  2.554390e+00    4.647973e+01
  2.560932e+00    4.635319e+01
  2.567473e+00    4.645370e+01
  2.574014e+00    4.665235e+01
  2.580556e+00    4.686641e+01
  2.587097e+00    4.715605e+01
  2.593638e+00    4.698831e+01
  2.600180e+00    4.721624e+01
  2.606721e+00    4.743431e+01
  2.613262e+00    4.767054e+01
  2.619804e+00    4.773701e+01
  2.626345e+00    4.805531e+01
  2.632886e+00    4.794196e+01
  2.639428e+00    4.846741e+01
  2.645969e+00    4.889783e+01
  2.652510e+00    4.913784e+01
  2.659052e+00    4.960879e+01
  2.665593e+00    5.012536e+01
  2.672134e+00    5.056237e+01
  2.678676e+00    5.118587e+01
  2.685217e+00    5.202360e+01
  2.691758e+00    5.263171e+01
  2.698300e+00    5.357828e+01
  2.704841e+00    5.429281e+01
  2.711382e+00    5.557287e+01
  2.717924e+00    5.647837e+01
  2.724465e+00    5.769781e+01
  2.731006e+00    5.920178e+01
  2.737548e+00    6.114988e+01
  2.744089e+00    6.288549e+01
  2.750630e+00    6.496137e+01
  2.757172e+00    6.719772e+01
  2.763713e+00    7.016955e+01
  2.770254e+00    7.320155e+01
  2.776796e+00    7.705119e+01
  2.783337e+00    8.173970e+01
  2.789878e+00    8.696897e+01
  2.796420e+00    9.272617e+01
  2.802961e+00    9.953226e+01
  2.809502e+00    1.075667e+02
  2.816044e+00    1.167787e+02
  2.822585e+00    1.276568e+02
  2.829126e+00    1.404564e+02
  2.835668e+00    1.561601e+02
  2.842209e+00    1.736695e+02
  2.848750e+00    1.943914e+02
  2.855292e+00    2.189423e+02
  2.861833e+00    2.483214e+02
  2.868374e+00    2.825680e+02
  2.874916e+00    3.246502e+02
  2.881457e+00    3.734680e+02
  2.887998e+00    4.299164e+02
  2.894540e+00    4.947001e+02
  2.901081e+00    5.687290e+02
  2.907622e+00    6.709094e+02
  2.914164e+00    8.343076e+02
  2.920705e+00    1.103582e+03
  2.927246e+00    1.499399e+03
  2.933788e+00    1.993497e+03
  2.940329e+00    2.434236e+03
  2.946870e+00    2.474689e+03
  2.953412e+00    1.964943e+03
  2.959953e+00    1.315177e+03
  2.966494e+00    8.518187e+02
  2.973036e+00    5.787118e+02
  2.979577e+00    4.162079e+02
  2.986118e+00    3.168069e+02
  2.992660e+00    2.521286e+02
  2.999201e+00    2.081677e+02
  3.005742e+00    1.758725e+02
  3.012284e+00    1.525278e+02
  3.018825e+00    1.342637e+02
  3.025366e+00    1.209746e+02
  3.031908e+00    1.102300e+02
  3.038449e+00    1.012593e+02
  3.044990e+00    9.388363e+01
  3.051532e+00    8.809623e+01
  3.058073e+00    8.314228e+01
  3.064614e+00    7.889828e+01
  3.071156e+00    7.526543e+01
  3.077697e+00    7.189133e+01
  3.084238e+00    6.942178e+01
  3.090780e+00    6.725879e+01
  3.097321e+00    6.495107e+01
  3.103862e+00    6.307150e+01
  3.110404e+00    6.184217e+01
  3.116945e+00    6.061620e+01
  3.123486e+00    5.919725e+01
  3.130028e+00    5.800647e+01
  3.136569e+00    5.684474e+01
  3.143110e+00    5.597052e+01
  3.149652e+00    5.548409e+01
  3.156193e+00    5.442970e+01
  3.162734e+00    5.378986e+01
  3.169276e+00    5.313602e+01
  3.175817e+00    5.245479e+01
  3.182358e+00    5.223493e+01
  3.188900e+00    5.177716e+01
  3.195441e+00    5.123272e+01
  3.201982e+00    5.095800e+01
  3.208524e+00    5.098086e+01
  3.215065e+00    5.042138e+01
  3.221606e+00    4.968596e+01
  3.228148e+00    4.977760e+01
  3.234689e+00    4.940876e+01
  3.241230e+00    4.934409e+01
  3.247772e+00    4.923441e+01
  3.254313e+00    4.890825e+01
  3.260854e+00    4.884523e+01
  3.267396e+00    4.899625e+01
  3.273937e+00    4.894122e+01
  3.280478e+00    4.869631e+01
  3.287020e+00    4.842111e+01
  3.293561e+00    4.823674e+01
  3.300102e+00    4.857603e+01
  3.306644e+00    4.873644e+01
  3.313185e+00    4.885035e+01
  3.319726e+00    4.878661e+01
  3.326268e+00    4.872779e+01
  3.332809e+00    4.918228e+01
  3.339350e+00    4.898618e+01
  3.345892e+00    4.914838e+01
  3.352433e+00    4.927246e+01
  3.358974e+00    4.908979e+01
  3.365516e+00    4.937369e+01
  3.372057e+00    4.968483e+01
  3.378598e+00    4.965266e+01
  3.385140e+00    5.004519e+01
  3.391681e+00    5.025924e+01
  3.398222e+00    5.011853e+01
  3.404764e+00    5.061039e+01
  3.411305e+00    5.124464e+01
  3.417846e+00    5.131669e+01
  3.424388e+00    5.150045e+01
  3.430929e+00    5.198523e+01
  3.437470e+00    5.194705e+01
  3.444012e+00    5.217099e+01
  3.450553e+00    5.299957e+01
  3.457094e+00    5.325830e+01
  3.463636e+00    5.389419e+01
  3.470177e+00    5.414271e+01
  3.476718e+00    5.493277e+01
  3.483260e+00    5.593439e+01
  3.489801e+00    5.614949e+01
  3.496342e+00    5.708097e+01
  3.502884e+00    5.825994e+01
  3.509425e+00    5.931914e+01
  3.515966e+00    6.063017e+01
  3.522508e+00    6.259394e+01
  3.529049e+00    6.505428e+01
  3.535590e+00    6.766521e+01
  3.542132e+00    7.067926e+01
  3.548673e+00    7.320515e+01
  3.555214e+00    7.445042e+01
  3.561756e+00    7.358781e+01
  3.568297e+00    7.182564e+01
  3.574838e+00    6.913088e+01
  3.581380e+00    6.742298e+01
  3.587921e+00    6.593188e+01
  3.594462e+00    6.478349e+01
  3.601004e+00    6.412612e+01
  3.607545e+00    6.367034e+01
  3.614086e+00    6.312291e+01
  3.620628e+00    6.287999e+01
  3.627169e+00    6.264515e+01
  3.633710e+00    6.214653e+01
  3.640252e+00    6.232467e+01
  3.646793e+00    6.201022e+01
  3.653334e+00    6.189982e+01
  3.659876e+00    6.167187e+01
  3.666417e+00    6.174866e+01
  3.672958e+00    6.162226e+01
  3.679500e+00    6.151649e+01
  3.686041e+00    6.152553e+01
  3.692582e+00    6.135834e+01
  3.699124e+00    6.124605e+01
  3.705665e+00    6.135900e+01
  3.712206e+00    6.149730e+01
  3.718748e+00    6.175891e+01
  3.725289e+00    6.189261e+01
  3.731830e+00    6.199443e+01
  3.738372e+00    6.293684e+01
  3.744913e+00    6.314196e+01
  3.751454e+00    6.382645e+01
  3.757996e+00    6.479526e+01
  3.764537e+00    6.606619e+01
  3.771078e+00    6.727634e+01
  3.777620e+00    6.894057e+01
  3.784161e+00    7.099754e+01
  3.790702e+00    7.327979e+01
  3.797244e+00    7.638965e+01
  3.803785e+00    7.986181e+01
  3.810326e+00    8.471556e+01
  3.816868e+00    8.993297e+01
  3.823409e+00    9.613656e+01
  3.829950e+00    1.037843e+02
  3.836492e+00    1.127891e+02
  3.843033e+00    1.230017e+02
  3.849574e+00    1.339866e+02
  3.856116e+00    1.451359e+02
  3.862657e+00    1.557944e+02
  3.869198e+00    1.664433e+02
  3.875740e+00    1.784752e+02
  3.882281e+00    1.983545e+02
  3.888822e+00    2.316477e+02
  3.895364e+00    2.887130e+02
  3.901905e+00    3.810333e+02
  3.908446e+00    5.137941e+02
  3.914988e+00    6.796943e+02
  3.921529e+00    8.395095e+02
  3.928070e+00    8.809790e+02
  3.934612e+00    7.232341e+02
  3.941153e+00    4.942230e+02
  3.947694e+00    3.270841e+02
  3.954236e+00    2.279445e+02
  3.960777e+00    1.694208e+02
  3.967318e+00    1.337170e+02
  3.973860e+00    1.105416e+02
  3.980401e+00    9.514251e+01
  3.986942e+00    8.381109e+01
  3.993484e+00    7.548512e+01
  4.000025e+00    6.944511e+01
  4.006566e+00    6.463023e+01
  4.013108e+00    6.100029e+01
  4.019649e+00    5.810863e+01
  4.026190e+00    5.556967e+01
  4.032732e+00    5.356261e+01
  4.039273e+00    5.154345e+01
  4.045814e+00    5.029193e+01
  4.052356e+00    4.930279e+01
  4.058897e+00    4.787647e+01
  4.065438e+00    4.696616e+01
  4.071980e+00    4.596008e+01
  4.078521e+00    4.554473e+01
  4.085062e+00    4.453621e+01
  4.091604e+00    4.386656e+01
  4.098145e+00    4.329090e+01
  4.104686e+00    4.285965e+01
  4.111228e+00    4.237443e+01
  4.117769e+00    4.204964e+01
  4.124310e+00    4.165958e+01
  4.130852e+00    4.141885e+01
  4.137393e+00    4.090705e+01
  4.143934e+00    4.053119e+01
  4.150476e+00    4.053708e+01
  4.157017e+00    4.026297e+01
  4.163558e+00    3.995504e+01
  4.170100e+00    3.960298e+01
  4.176641e+00    3.944272e+01
  4.183182e+00    3.900949e+01
  4.189724e+00    3.898994e+01
  4.196265e+00    3.916877e+01
  4.202806e+00    3.876950e+01
  4.209348e+00    3.858530e+01
  4.215889e+00    3.841786e+01
  4.222430e+00    3.819064e+01
  4.228972e+00    3.800705e+01
  4.235513e+00    3.785573e+01
  4.242054e+00    3.747796e+01
  4.248596e+00    3.767009e+01
  4.255137e+00    3.741965e+01
  4.261678e+00    3.766980e+01
  4.268220e+00    3.740899e+01
  4.274761e+00    3.713825e+01
  4.281302e+00    3.710922e+01
  4.287844e+00    3.674314e+01
  4.294385e+00    3.683992e+01
  4.300926e+00    3.689999e+01
  4.307468e+00    3.675484e+01
  4.314009e+00    3.635466e+01
  4.320550e+00    3.650966e+01
  4.327092e+00    3.648705e+01
  4.333633e+00    3.624195e+01
  4.340174e+00    3.604393e+01
  4.346716e+00    3.607462e+01
  4.353257e+00    3.588412e+01
  4.359798e+00    3.579863e+01
  4.366340e+00    3.577141e+01
  4.372881e+00    3.540324e+01
  4.379422e+00    3.571737e+01
  4.385964e+00    3.562077e+01
  4.392505e+00    3.551939e+01
  4.399046e+00    3.543518e+01
  4.405588e+00    3.529870e+01
  4.412129e+00    3.530697e+01
  4.418670e+00    3.514578e+01
  4.425212e+00    3.508662e+01
  4.431753e+00    3.499704e+01
  4.438294e+00    3.497845e+01
  4.444836e+00    3.494830e+01
  4.451377e+00    3.485636e+01
  4.457918e+00    3.468496e+01
  4.464460e+00    3.457166e+01
  4.471001e+00    3.465527e+01
  4.477542e+00    3.451310e+01
  4.484084e+00    3.451207e+01
  4.490625e+00    3.438095e+01
  4.497166e+00    3.420827e+01
  4.503708e+00    3.429061e+01
  4.510249e+00    3.426997e+01
  4.516790e+00    3.431541e+01
  4.523332e+00    3.429525e+01
  4.529873e+00    3.421898e+01
  4.536414e+00    3.422338e+01
  4.542956e+00    3.414161e+01
  4.549497e+00    3.403809e+01
  4.556038e+00    3.417673e+01
  4.562580e+00    3.398521e+01
  4.569121e+00    3.404551e+01
  4.575662e+00    3.405989e+01
  4.582204e+00    3.407042e+01
  4.588745e+00    3.381759e+01
  4.595286e+00    3.389145e+01
  4.601828e+00    3.373468e+01
  4.608369e+00    3.369534e+01
  4.614910e+00    3.375106e+01
  4.621452e+00    3.393064e+01
  4.627993e+00    3.421185e+01
  4.634534e+00    3.431242e+01
  4.641076e+00    3.419403e+01
  4.647617e+00    3.416673e+01
  4.654158e+00    3.440203e+01
  4.660700e+00    3.453197e+01
  4.667241e+00    3.487039e+01
  4.673782e+00    3.520047e+01
  4.680324e+00    3.577377e+01
  4.686865e+00    3.618813e+01
  4.693406e+00    3.636796e+01
  4.699948e+00    3.677414e+01
  4.706489e+00    3.737981e+01
  4.713030e+00    3.833310e+01
  4.719572e+00    3.945388e+01
  4.726113e+00    4.028772e+01
  4.732654e+00    4.141650e+01
  4.739196e+00    4.289196e+01
  4.745737e+00    4.451424e+01
  4.752278e+00    4.663466e+01
  4.758820e+00    4.870774e+01
  4.765361e+00    5.159388e+01
  4.771902e+00    5.496159e+01
  4.778444e+00    5.893787e+01
  4.784985e+00    6.354031e+01
  4.791526e+00    6.869080e+01
  4.798068e+00    7.441877e+01
  4.804609e+00    8.111809e+01
  4.811150e+00    8.834528e+01
  4.817692e+00    9.453136e+01
  4.824233e+00    1.000139e+02
  4.830774e+00    1.040159e+02
  4.837316e+00    1.062100e+02
  4.843857e+00    1.091806e+02
  4.850398e+00    1.137684e+02
  4.856940e+00    1.231304e+02
  4.863481e+00    1.389908e+02
  4.870022e+00    1.659952e+02
  4.876564e+00    2.086169e+02
  4.883105e+00    2.759236e+02
  4.889646e+00    3.735605e+02
  4.896188e+00    4.963791e+02
  4.902729e+00    6.169665e+02
  4.909270e+00    6.647009e+02
  4.915812e+00    5.730734e+02
  4.922353e+00    4.043841e+02
  4.928894e+00    2.704067e+02
  4.935436e+00    1.896236e+02
  4.941977e+00    1.414959e+02
  4.948518e+00    1.118296e+02
  4.955060e+00    9.189453e+01
  4.961601e+00    7.859217e+01
  4.968142e+00    6.940416e+01
  4.974684e+00    6.312167e+01
  4.981225e+00    5.836212e+01
  4.987766e+00    5.459066e+01
  4.994308e+00    5.196225e+01
  5.000849e+00    4.938059e+01
  5.007390e+00    4.731592e+01
  5.013932e+00    4.551658e+01
  5.020473e+00    4.398373e+01
  5.027014e+00    4.292357e+01
  5.033556e+00    4.156378e+01
  5.040097e+00    4.044466e+01
  5.046638e+00    3.966590e+01
  5.053180e+00    3.872804e+01
  5.059721e+00    3.781292e+01
  5.066262e+00    3.707781e+01
  5.072804e+00    3.629704e+01
  5.079345e+00    3.575901e+01
  5.085886e+00    3.496611e+01
  5.092428e+00    3.417763e+01
  5.098969e+00    3.350204e+01
  5.105510e+00    3.311237e+01
  5.112052e+00    3.270985e+01
  5.118593e+00    3.233059e+01
  5.125134e+00    3.220478e+01
  5.131676e+00    3.170094e+01
  5.138217e+00    3.140132e+01
  5.144758e+00    3.114513e+01
  5.151300e+00    3.083903e+01
  5.157841e+00    3.035659e+01
  5.164382e+00    2.991148e+01
  5.170923e+00    3.007006e+01
  5.177465e+00    2.981232e+01
  5.184006e+00    2.961720e+01
  5.190547e+00    2.941024e+01
  5.197089e+00    2.931780e+01
  5.203630e+00    2.915084e+01
  5.210171e+00    2.917488e+01
  5.216713e+00    2.879838e+01
  5.223254e+00    2.860074e+01
  5.229795e+00    2.845735e+01
  5.236337e+00    2.817669e+01
  5.242878e+00    2.807660e+01
  5.249419e+00    2.794455e+01
  5.255961e+00    2.795826e+01
  5.262502e+00    2.779284e+01
  5.269043e+00    2.790561e+01
  5.275585e+00    2.772465e+01
  5.282126e+00    2.749355e+01
  5.288667e+00    2.762162e+01
  5.295209e+00    2.762947e+01
  5.301750e+00    2.745360e+01
  5.308291e+00    2.728408e+01
  5.314833e+00    2.685292e+01
  5.321374e+00    2.703748e+01
  5.327915e+00    2.691323e+01
  5.334457e+00    2.655691e+01
  5.340998e+00    2.657309e+01
  5.347539e+00    2.677186e+01
  5.354081e+00    2.648980e+01
  5.360622e+00    2.654904e+01
  5.367163e+00    2.650163e+01
  5.373705e+00    2.639273e+01
  5.380246e+00    2.605354e+01
  5.386787e+00    2.602726e+01
  5.393329e+00    2.622939e+01
  5.399870e+00    2.624804e+01
  5.406411e+00    2.597535e+01
  5.412953e+00    2.613364e+01
  5.419494e+00    2.564442e+01
  5.426035e+00    2.564379e+01
  5.432577e+00    2.566378e+01
  5.439118e+00    2.565391e+01
  5.445659e+00    2.534066e+01
  5.452201e+00    2.537270e+01
  5.458742e+00    2.539455e+01
  5.465283e+00    2.546299e+01
  5.471825e+00    2.563786e+01
  5.478366e+00    2.548765e+01
  5.484907e+00    2.532001e+01
  5.491449e+00    2.506945e+01
  5.497990e+00    2.521404e+01
  5.504531e+00    2.528123e+01
  5.511073e+00    2.518060e+01
  5.517614e+00    2.512105e+01
  5.524155e+00    2.486883e+01
  5.530697e+00    2.362117e+01
  5.537238e+00    2.111366e+01
  5.543779e+00    1.864004e+01
  5.550321e+00    1.612484e+01
  5.556862e+00    1.257784e+01
  5.563403e+00    1.006847e+01
  5.569945e+00    8.425273e+00
  5.576486e+00    6.354373e+00
  5.583027e+00    3.190579e+00
  5.589569e+00    9.605614e-01
  5.596110e+00    4.406329e-01
  5.602651e+00    3.878373e-01
  5.609193e+00    3.689292e-01
  5.615734e+00    3.709498e-01
  5.622275e+00    3.943377e-01
  5.628817e+00    3.671982e-01
  5.635358e+00    3.625332e-01
  5.641899e+00    3.704010e-01
  5.648441e+00    3.840649e-01
  5.654982e+00    3.360405e-01
  5.661523e+00    3.465978e-01
  5.668065e+00    3.406460e-01
  5.674606e+00    3.660707e-01
  5.681147e+00    3.805902e-01
  5.687689e+00    3.481928e-01
  5.694230e+00    3.345999e-01
  5.700771e+00    3.462026e-01
  5.707313e+00    3.797286e-01
  5.713854e+00    3.399164e-01
  5.720395e+00    3.658589e-01
  5.726937e+00    3.671484e-01
  5.733478e+00    3.559819e-01
  5.740019e+00    3.421524e-01
  5.746561e+00    3.376750e-01
  5.753102e+00    3.460675e-01
  5.759643e+00    3.427078e-01
  5.766185e+00    3.207075e-01
  5.772726e+00    3.098399e-01
  5.779267e+00    3.440857e-01
  5.785809e+00    3.163509e-01
  5.792350e+00    3.078583e-01
  5.798891e+00    2.845317e-01
  5.805433e+00    3.167212e-01
  5.811974e+00    3.021656e-01
  5.818515e+00    3.387528e-01
  5.825057e+00    2.945492e-01
  5.831598e+00    3.300425e-01
  5.838139e+00    2.700154e-01
  5.844681e+00    2.371005e-01
  5.851222e+00    2.783533e-01
  5.857763e+00    2.860779e-01
  5.864305e+00    3.451533e-01
  5.870846e+00    3.392220e-01
  5.877387e+00    2.719885e-01
  5.883929e+00    2.759955e-01
  5.890470e+00    2.549890e-01
  5.897011e+00    2.894967e-01
  5.903553e+00    2.723665e-01
  5.910094e+00    2.731639e-01
  5.916635e+00    2.624062e-01
  5.923177e+00    2.550631e-01
  5.929718e+00    3.051514e-01
  5.936259e+00    2.971393e-01
  5.942801e+00    3.258446e-01
  5.949342e+00    3.226785e-01
  5.955883e+00    2.742536e-01
  5.962425e+00    2.360018e-01
  5.968966e+00    2.838197e-01
  5.975507e+00    2.542069e-01
  5.982049e+00    2.539854e-01
  5.988590e+00    2.825831e-01
  5.995131e+00    2.966771e-01
  6.001673e+00    3.079358e-01
  6.008214e+00    2.492408e-01
  6.014755e+00    2.482042e-01
  6.021297e+00    2.745905e-01
  6.027838e+00    2.808996e-01
  6.034379e+00    2.553761e-01
  6.040921e+00    2.662950e-01
  6.047462e+00    2.765359e-01
  6.054003e+00    2.288392e-01
  6.060545e+00    2.674975e-01
  6.067086e+00    2.594672e-01
  6.073627e+00    2.693948e-01
  6.080169e+00    2.612205e-01
  6.086710e+00    2.267375e-01
  6.093251e+00    2.171862e-01
  6.099793e+00    2.270938e-01
  6.106334e+00    2.225166e-01
  6.112875e+00    2.389601e-01
  6.119417e+00    2.586992e-01
  6.125958e+00    2.452967e-01
  6.132499e+00    2.675430e-01
  6.139041e+00    2.730033e-01
  6.145582e+00    2.069032e-01
  6.152123e+00    1.976822e-01
  6.158665e+00    2.415646e-01
  6.165206e+00    2.311458e-01
  6.171747e+00    2.062341e-01
  6.178289e+00    2.150638e-01
  6.184830e+00    2.349291e-01
  6.191371e+00    2.153709e-01
  6.197913e+00    2.389916e-01
  6.204454e+00    2.404668e-01
  6.210995e+00    2.348595e-01
  6.217537e+00    2.272886e-01
  6.224078e+00    2.383549e-01
  6.230619e+00    2.071619e-01
  6.237161e+00    2.265347e-01
  6.243702e+00    2.093410e-01
  6.250243e+00    1.388887e-01
  6.256785e+00    2.165862e-01
  6.263326e+00    2.200707e-01
  6.269867e+00    2.294400e-01
  6.276409e+00    2.616101e-01
  6.282950e+00    2.648295e-01
  6.289491e+00    1.959940e-01
  6.296033e+00    1.716315e-01
  6.302574e+00    1.741591e-01
  6.309115e+00    1.533494e-01
  6.315657e+00    2.082229e-01
  6.322198e+00    2.333888e-01
  6.328739e+00    1.934289e-01
  6.335281e+00    1.434395e-01
  6.341822e+00    1.434186e-01
  6.348363e+00    1.737962e-01
  6.354905e+00    2.230055e-01
  6.361446e+00    2.265263e-01
  6.367987e+00    1.893933e-01
  6.374529e+00    2.024585e-01
  6.381070e+00    2.100656e-01
  6.387611e+00    2.069082e-01
  6.394153e+00    1.942377e-01
  6.400694e+00    2.412971e-01
  6.407235e+00    2.432074e-01
  6.413777e+00    2.396764e-01
  6.420318e+00    1.812570e-01
  6.426859e+00    1.386139e-01
  6.433401e+00    1.668693e-01
  6.439942e+00    1.457151e-01
  6.446483e+00    1.958473e-01
  6.453025e+00    2.046464e-01
  6.459566e+00    1.785460e-01
  6.466107e+00    2.473307e-01
  6.472649e+00    2.545263e-01
  6.479190e+00    2.547210e-01
  6.485731e+00    2.203740e-01
  6.492273e+00    1.751087e-01
  6.498814e+00    1.647255e-01
  6.505355e+00    1.977414e-01
  6.511897e+00    1.465596e-01
  6.518438e+00    1.553094e-01
  6.524979e+00    1.937825e-01
  6.531521e+00    2.054938e-01
  6.538062e+00    2.121624e-01
  6.544603e+00    1.367674e-01
  6.551145e+00    1.744835e-01
  6.557686e+00    2.748818e-01
  6.564227e+00    1.848094e-01
  6.570769e+00    1.575163e-01
  6.577310e+00    1.657750e-01
  6.583851e+00    1.685014e-01
  6.590393e+00    1.358839e-01
  6.596934e+00    1.135609e-01
  6.603475e+00    6.997924e-02
  6.610017e+00    1.187871e-01
  6.616558e+00    9.778811e-02
  6.623099e+00    8.387204e-02
  6.629641e+00    5.419938e-02
  6.636182e+00    8.229814e-02
  6.642723e+00    1.748645e-01
  6.649265e+00    2.097632e-01
  6.655806e+00    2.004622e-01
  6.662347e+00    3.016402e-01
  6.668889e+00    3.981086e-01
  6.675430e+00    1.942904e-01
  6.681971e+00    5.891366e-02
  6.688513e+00    6.311935e-02
  6.695054e+00    5.965441e-01
