 1.5819209E-02  2.7049762E-01
 4.7457628E-02  2.6010722E-01
 7.9096049E-02  2.3133558E-01
 1.1073446E-01  2.3497476E-01
 1.4237288E-01  1.7747313E-01
 1.7401130E-01  1.2078071E-01
 2.0564972E-01  4.4181548E-02
 2.3728813E-01  7.4553512E-02
 2.6892656E-01  2.0393690E-01
 3.0056497E-01  2.3176907E-01
 3.3220339E-01  2.1264610E-01
 3.6384180E-01  2.4290301E-01
 3.9548022E-01  1.9035149E-01
 4.2711866E-01  1.9269173E-01
 4.5875707E-01  2.1932729E-01
 4.9039549E-01  2.7024013E-01
 5.2203393E-01  2.5917023E-01
 5.5367231E-01  3.0825213E-01
 5.8531076E-01  2.8882921E-01
 6.1694914E-01  2.1976371E-01
 6.4858758E-01  2.5991967E-01
 6.8022597E-01  2.6406002E-01
 7.1186441E-01  1.2483124E+02
 7.4350286E-01  1.1607535E+02
 7.7514124E-01  1.0000761E+00
 8.0677968E-01  2.3073537E+00
 8.3841807E-01  5.3611426E+00
 8.7005651E-01  8.8375683E+00
 9.0169489E-01  2.4202194E+01
 9.3333334E-01  4.1988014E+01
 9.6497178E-01  4.7938690E+01
 9.9661016E-01  5.2780975E+01
 1.0282485E+00  5.3207382E+01
 1.0598871E+00  5.3684570E+01
 1.0915254E+00  5.4198982E+01
 1.1231638E+00  5.2613953E+01
 1.1548023E+00  5.0200680E+01
 1.1864407E+00  4.7020210E+01
 1.2180791E+00  4.4127731E+01
 1.2497175E+00  4.0662849E+01
 1.2813560E+00  3.8535927E+01
 1.3129944E+00  3.5687859E+01
 1.3446327E+00  3.2959820E+01
 1.3762712E+00  3.0966654E+01
 1.4079096E+00  2.7783981E+01
 1.4395480E+00  2.5863482E+01
 1.4711864E+00  2.4615044E+01
 1.5028249E+00  2.3169540E+01
 1.5344633E+00  2.1390779E+01
 1.5661017E+00  1.9931467E+01
 1.5977402E+00  1.8950106E+01
 1.6293786E+00  1.7978025E+01
 1.6610169E+00  1.7062471E+01
 1.6926553E+00  1.5796411E+01
 1.7242938E+00  1.5322230E+01
 1.7559322E+00  1.4507688E+01
 1.7875706E+00  1.3679396E+01
 1.8192091E+00  1.3412538E+01
 1.8508475E+00  1.2786112E+01
 1.8824859E+00  1.2237517E+01
 1.9141243E+00  1.2084782E+01
 1.9457628E+00  1.1901150E+01
 1.9774011E+00  1.1433101E+01
 2.0090396E+00  1.0892346E+01
 2.0406780E+00  1.0617396E+01
 2.0723164E+00  1.0519133E+01
 2.1039548E+00  1.0280245E+01
 2.1355932E+00  9.9313087E+00
 2.1672316E+00  9.5214891E+00
 2.1988702E+00  9.1576004E+00
 2.2305086E+00  8.8787479E+00
 2.2621469E+00  8.7466288E+00
 2.2937853E+00  8.7759666E+00
 2.3254237E+00  9.0628366E+00
 2.3570621E+00  8.9332151E+00
 2.3887005E+00  8.7410097E+00
 2.4203391E+00  8.5594845E+00
 2.4519775E+00  8.5646296E+00
 2.4836159E+00  8.4279280E+00
 2.5152543E+00  8.1661654E+00
 2.5468926E+00  7.9994125E+00
 2.5785310E+00  7.8640127E+00
 2.6101694E+00  7.8636203E+00
 2.6418080E+00  7.8816462E+00
 2.6734464E+00  7.9315095E+00
 2.7050848E+00  7.9097099E+00
 2.7367232E+00  7.6157098E+00
 2.7683616E+00  7.5850081E+00
 2.8000000E+00  7.5638471E+00
 2.8316383E+00  7.4318538E+00
 2.8632770E+00  7.7049184E+00
 2.8949153E+00  7.8543639E+00
 2.9265537E+00  7.7653117E+00
 2.9581921E+00  7.5645161E+00
 2.9898305E+00  7.3602514E+00
 3.0214689E+00  7.3643637E+00
 3.0531073E+00  7.3815651E+00
 3.0847459E+00  7.4031601E+00
 3.1163843E+00  7.4806938E+00
 3.1480227E+00  7.4816675E+00
 3.1796610E+00  7.5027018E+00
 3.2112994E+00  7.5537257E+00
 3.2429378E+00  7.4271135E+00
 3.2745762E+00  7.4704719E+00
 3.3062148E+00  7.5459213E+00
 3.3378532E+00  7.5777917E+00
 3.3694916E+00  7.4632025E+00
 3.4011300E+00  7.4618721E+00
 3.4327683E+00  7.5532241E+00
 3.4644067E+00  7.6213593E+00
 3.4960451E+00  7.9269948E+00
 3.5276837E+00  8.3525438E+00
 3.5593221E+00  8.6227989E+00
 3.5909605E+00  8.7289495E+00
 3.6225989E+00  8.8970547E+00
 3.6542373E+00  9.3938446E+00
 3.6858757E+00  9.7397280E+00
 3.7175140E+00  1.0051731E+01
 3.7491527E+00  1.0440063E+01
 3.7807910E+00  1.1028917E+01
 3.8124294E+00  1.1493492E+01
 3.8440678E+00  1.1607687E+01
 3.8757062E+00  1.1778850E+01
 3.9073446E+00  1.1766157E+01
 3.9389830E+00  1.1949939E+01
 3.9706216E+00  1.1895917E+01
 4.0022597E+00  1.1607641E+01
 4.0338984E+00  1.1082437E+01
 4.0655370E+00  1.0475808E+01
 4.0971751E+00  1.0062340E+01
 4.1288137E+00  9.6743593E+00
 4.1604519E+00  9.3199883E+00
 4.1920905E+00  9.0979881E+00
 4.2237287E+00  8.9994116E+00
 4.2553673E+00  8.5910158E+00
 4.2870059E+00  8.4353170E+00
 4.3186440E+00  8.4025927E+00
 4.3502827E+00  8.2412577E+00
 4.3819208E+00  8.1073408E+00
 4.4135594E+00  8.0423746E+00
 4.4451976E+00  8.0240707E+00
 4.4768362E+00  8.0042629E+00
 4.5084748E+00  8.0457497E+00
 4.5401130E+00  7.9479036E+00
 4.5717516E+00  7.8666883E+00
 4.6033897E+00  7.9444704E+00
 4.6350284E+00  7.9912467E+00
 4.6666665E+00  8.0524216E+00
 4.6983051E+00  7.9933572E+00
 4.7299438E+00  7.8749304E+00
 4.7615819E+00  7.8325381E+00
 4.7932205E+00  7.7135677E+00
 4.8248587E+00  7.8187265E+00
 4.8564973E+00  7.9007168E+00
 4.8881354E+00  7.9907336E+00
 4.9197741E+00  7.9333081E+00
 4.9514127E+00  7.9047980E+00
 4.9830508E+00  7.9130702E+00
 5.0146894E+00  7.9300485E+00
 5.0463276E+00  8.0442495E+00
 5.0779662E+00  8.1335802E+00
 5.1096044E+00  8.0585651E+00
 5.1412430E+00  7.9593763E+00
 5.1728816E+00  7.9871340E+00
 5.2045197E+00  8.1047592E+00
 5.2361584E+00  8.1150551E+00
 5.2677965E+00  8.0735054E+00
 5.2994351E+00  8.0837307E+00
 5.3310733E+00  8.2129040E+00
 5.3627119E+00  8.1636286E+00
 5.3943505E+00  7.9209843E+00
 5.4259887E+00  7.9231682E+00
 5.4576273E+00  8.0700083E+00
 5.4892654E+00  8.1541500E+00
 5.5209041E+00  8.1016283E+00
 5.5525422E+00  8.0453072E+00
 5.5841808E+00  8.0879469E+00
 5.6158195E+00  8.0764599E+00
 5.6474576E+00  8.1086168E+00
 5.6790962E+00  8.0928259E+00
 5.7107344E+00  8.0961723E+00
 5.7423730E+00  8.2223997E+00
 5.7740111E+00  8.1097250E+00
 5.8056498E+00  8.1271982E+00
 5.8372884E+00  8.1859436E+00
 5.8689265E+00  8.1417074E+00
 5.9005651E+00  8.1878853E+00
 5.9322033E+00  8.1440058E+00
 5.9638419E+00  8.2004099E+00
 5.9954801E+00  8.2406969E+00
 6.0271187E+00  8.1729603E+00
 6.0587573E+00  8.2676773E+00
 6.0903955E+00  8.2312603E+00
 6.1220341E+00  8.2156925E+00
 6.1536722E+00  8.1707964E+00
 6.1853108E+00  8.1807632E+00
 6.2169490E+00  8.3010807E+00
 6.2485876E+00  8.2549219E+00
 6.2802262E+00  8.2133141E+00
 6.3118644E+00  8.2822895E+00
 6.3435030E+00  8.2351551E+00
 6.3751411E+00  8.1001225E+00
 6.4067798E+00  8.1523542E+00
 6.4384179E+00  8.3316040E+00
 6.4700565E+00  8.4139042E+00
 6.5016952E+00  8.4041882E+00
 6.5333333E+00  8.3812132E+00
 6.5649719E+00  8.2785330E+00
 6.5966101E+00  8.2190580E+00
 6.6282487E+00  8.2619181E+00
 6.6598868E+00  8.2659817E+00
 6.6915255E+00  8.3101034E+00
 6.7231641E+00  8.4953794E+00
 6.7548022E+00  8.4924221E+00
 6.7864408E+00  8.3668451E+00
 6.8180790E+00  8.4401503E+00
 6.8497176E+00  8.5267744E+00
 6.8813558E+00  8.4538450E+00
 6.9129944E+00  8.2655544E+00
 6.9446330E+00  8.3413429E+00
 6.9762712E+00  8.4955177E+00
 7.0079098E+00  8.5214901E+00
 7.0395479E+00  8.3841562E+00
 7.0711865E+00  8.3923721E+00
 7.1028247E+00  8.5619249E+00
 7.1344633E+00  8.5155134E+00
 7.1661019E+00  8.4046955E+00
 7.1977401E+00  8.4025698E+00
 7.2293787E+00  8.3976612E+00
 7.2610168E+00  8.5045271E+00
 7.2926555E+00  8.5908737E+00
 7.3242936E+00  8.5632505E+00
 7.3559322E+00  8.5765114E+00
 7.3875709E+00  8.5923672E+00
 7.4192090E+00  8.7490320E+00
 7.4508476E+00  8.8562346E+00
 7.4824858E+00  8.8156233E+00
 7.5141244E+00  8.7391138E+00
 7.5457625E+00  8.7542372E+00
 7.5774012E+00  8.8448439E+00
 7.6090398E+00  8.8479424E+00
 7.6406779E+00  8.8427010E+00
 7.6723166E+00  8.9629774E+00
 7.7039547E+00  9.1354122E+00
 7.7355933E+00  9.1346788E+00
 7.7672315E+00  8.9718580E+00
 7.7988701E+00  8.8943129E+00
 7.8305087E+00  8.9031897E+00
 7.8621469E+00  8.8773718E+00
 7.8937855E+00  8.7954588E+00
 7.9254236E+00  8.7818089E+00
 7.9570622E+00  8.8022499E+00
 7.9887004E+00  8.8234367E+00
 8.0203390E+00  8.8220100E+00
 8.0519772E+00  8.8432379E+00
 8.0836163E+00  8.8831844E+00
 8.1152544E+00  8.9719629E+00
 8.1468925E+00  8.9369230E+00
 8.1785307E+00  8.9259634E+00
 8.2101698E+00  9.0473976E+00
 8.2418079E+00  9.0542879E+00
 8.2734461E+00  8.9882927E+00
 8.3050852E+00  8.9596319E+00
 8.3367233E+00  8.9851751E+00
 8.3683615E+00  8.9954405E+00
 8.3999996E+00  8.9054899E+00
 8.4316387E+00  8.8241301E+00
 8.4632769E+00  9.0421648E+00
 8.4949150E+00  9.0119152E+00
 8.5265541E+00  8.9064674E+00
 8.5581923E+00  9.1020374E+00
 8.5898304E+00  9.1295490E+00
 8.6214685E+00  9.1146717E+00
 8.6531076E+00  9.1204643E+00
 8.6847458E+00  9.0779667E+00
 8.7163839E+00  9.1353474E+00
 8.7480230E+00  9.1493692E+00
 8.7796612E+00  9.1969328E+00
 8.8112993E+00  9.3494949E+00
 8.8429375E+00  9.4902830E+00
 8.8745766E+00  9.5335569E+00
 8.9062147E+00  9.4986935E+00
 8.9378529E+00  9.5342646E+00
 8.9694920E+00  9.6753216E+00
 9.0011301E+00  9.7011242E+00
 9.0327682E+00  9.6219730E+00
 9.0644064E+00  9.7343674E+00
 9.0960455E+00  9.9369946E+00
 9.1276836E+00  1.0028134E+01
 9.1593218E+00  1.0149621E+01
 9.1909609E+00  1.0392672E+01
 9.2225990E+00  1.0492278E+01
 9.2542372E+00  1.0549665E+01
 9.2858753E+00  1.0644597E+01
 9.3175144E+00  1.0665092E+01
 9.3491526E+00  1.0759267E+01
 9.3807907E+00  1.0973974E+01
 9.4124298E+00  1.1200213E+01
 9.4440680E+00  1.1297779E+01
 9.4757061E+00  1.1478877E+01
 9.5073442E+00  1.1410082E+01
 9.5389833E+00  1.1172486E+01
 9.5706215E+00  1.1193366E+01
 9.6022596E+00  1.1179522E+01
 9.6338987E+00  1.1259682E+01
 9.6655369E+00  1.1269777E+01
 9.6971750E+00  1.1194706E+01
 9.7288132E+00  1.1297854E+01
 9.7604523E+00  1.1369143E+01
 9.7920904E+00  1.1325848E+01
 9.8237286E+00  1.1342041E+01
 9.8553677E+00  1.1317303E+01
 9.8870058E+00  1.1341166E+01
 9.9186440E+00  1.1406304E+01
 9.9502821E+00  1.1421227E+01
 9.9819212E+00  1.1375937E+01
 1.0013559E+01  1.1427022E+01
 1.0045197E+01  1.1444496E+01
 1.0076837E+01  1.1356382E+01
 1.0108475E+01  1.1476308E+01
 1.0140113E+01  1.1551099E+01
 1.0171751E+01  1.1570167E+01
 1.0203390E+01  1.1608282E+01
 1.0235028E+01  1.1556594E+01
 1.0266666E+01  1.1461083E+01
 1.0298306E+01  1.1435795E+01
 1.0329944E+01  1.1716153E+01
 1.0361582E+01  1.1951275E+01
 1.0393220E+01  1.1997963E+01
 1.0424859E+01  1.1804599E+01
 1.0456497E+01  1.1589903E+01
 1.0488135E+01  1.1427778E+01
 1.0519774E+01  1.1307285E+01
 1.0551413E+01  1.1165236E+01
 1.0583051E+01  1.1102774E+01
 1.0614689E+01  1.1038213E+01
 1.0646328E+01  1.0949369E+01
 1.0677966E+01  1.0883976E+01
 1.0709604E+01  1.0881541E+01
 1.0741243E+01  1.0812827E+01
 1.0772882E+01  1.0672095E+01
 1.0804520E+01  1.0676540E+01
 1.0836158E+01  1.0688785E+01
 1.0867797E+01  1.0652523E+01
 1.0899435E+01  1.0634077E+01
 1.0931073E+01  1.0602188E+01
 1.0962712E+01  1.0491982E+01
 1.0994350E+01  1.0476453E+01
 1.1025989E+01  1.0507071E+01
 1.1057627E+01  1.0657083E+01
 1.1089266E+01  1.0628066E+01
 1.1120904E+01  1.0481390E+01
 1.1152542E+01  1.0411988E+01
 1.1184181E+01  1.0567482E+01
 1.1215819E+01  1.0817075E+01
 1.1247458E+01  1.1036448E+01
 1.1279096E+01  1.1137117E+01
 1.1310735E+01  1.1254394E+01
 1.1342373E+01  1.1233624E+01
 1.1374011E+01  1.1297427E+01
 1.1405650E+01  1.1152145E+01
 1.1437288E+01  1.1188524E+01
 1.1468926E+01  1.1438605E+01
 1.1500565E+01  1.1527669E+01
 1.1532204E+01  1.1581621E+01
 1.1563842E+01  1.1564928E+01
 1.1595480E+01  1.1484427E+01
 1.1627119E+01  1.1517289E+01
 1.1658757E+01  1.1599351E+01
 1.1690395E+01  1.1446227E+01
 1.1722034E+01  1.1421132E+01
 1.1753673E+01  1.1463510E+01
 1.1785311E+01  1.1494274E+01
 1.1816949E+01  1.1511053E+01
 1.1848588E+01  1.1655574E+01
 1.1880226E+01  1.1573161E+01
 1.1911864E+01  1.1445806E+01
 1.1943502E+01  1.1368279E+01
 1.1975142E+01  1.1210974E+01
 1.2006780E+01  1.1068374E+01
 1.2038418E+01  1.0898198E+01
 1.2070057E+01  1.0858193E+01
 1.2101695E+01  1.0995571E+01
 1.2133333E+01  1.0834444E+01
 1.2164971E+01  1.0678281E+01
 1.2196610E+01  1.0725258E+01
 1.2228249E+01  1.0814528E+01
 1.2259887E+01  1.0930367E+01
 1.2291526E+01  1.1033474E+01
 1.2323164E+01  1.1244668E+01
 1.2354802E+01  1.1313843E+01
 1.2386440E+01  1.1348133E+01
 1.2418079E+01  1.1361683E+01
 1.2449718E+01  1.1405673E+01
 1.2481356E+01  1.1464949E+01
 1.2512995E+01  1.1610538E+01
 1.2544633E+01  1.1590688E+01
 1.2576271E+01  1.1579526E+01
 1.2607909E+01  1.1766075E+01
 1.2639548E+01  1.1761568E+01
 1.2671186E+01  1.1797115E+01
 1.2702825E+01  1.1992265E+01
 1.2734464E+01  1.2098758E+01
 1.2766102E+01  1.2115358E+01
 1.2797740E+01  1.2121711E+01
 1.2829379E+01  1.2024201E+01
 1.2861017E+01  1.2148749E+01
 1.2892655E+01  1.2266496E+01
 1.2924294E+01  1.2247312E+01
 1.2955933E+01  1.2346420E+01
 1.2987571E+01  1.2342296E+01
 1.3019209E+01  1.2330373E+01
 1.3050848E+01  1.2438293E+01
 1.3082486E+01  1.2493211E+01
 1.3114124E+01  1.2471404E+01
 1.3145762E+01  1.2552937E+01
 1.3177402E+01  1.2451926E+01
 1.3209040E+01  1.2436115E+01
 1.3240678E+01  1.2422842E+01
 1.3272317E+01  1.2424507E+01
 1.3303955E+01  1.2392344E+01
 1.3335593E+01  1.2517751E+01
 1.3367231E+01  1.2722545E+01
 1.3398870E+01  1.2627686E+01
 1.3430509E+01  1.2732934E+01
 1.3462147E+01  1.2704763E+01
 1.3493786E+01  1.2671882E+01
 1.3525424E+01  1.2703633E+01
 1.3557062E+01  1.2647211E+01
 1.3588700E+01  1.2771634E+01
 1.3620339E+01  1.2762369E+01
 1.3651978E+01  1.2750878E+01
 1.3683616E+01  1.2773980E+01
 1.3715255E+01  1.2839078E+01
 1.3746893E+01  1.2816072E+01
 1.3778531E+01  1.2843538E+01
 1.3810169E+01  1.2937303E+01
 1.3841808E+01  1.2928872E+01
 1.3873446E+01  1.2902572E+01
 1.3905085E+01  1.2938434E+01
 1.3936724E+01  1.2955624E+01
 1.3968362E+01  1.3011083E+01
 1.4000000E+01  1.3006255E+01
 1.4031638E+01  1.2895472E+01
 1.4063277E+01  1.2938622E+01
 1.4094915E+01  1.3073906E+01
 1.4126554E+01  1.2997179E+01
 1.4158193E+01  1.3031481E+01
 1.4189831E+01  1.3016259E+01
 1.4221469E+01  1.3036271E+01
 1.4253107E+01  1.3134384E+01
 1.4284746E+01  1.3223034E+01
 1.4316384E+01  1.3121373E+01
 1.4348022E+01  1.3068973E+01
 1.4379662E+01  1.3097912E+01
 1.4411300E+01  1.3242268E+01
 1.4442938E+01  1.3160224E+01
 1.4474576E+01  1.3010323E+01
 1.4506215E+01  1.3137218E+01
 1.4537853E+01  1.3238884E+01
 1.4569491E+01  1.3254665E+01
 1.4601130E+01  1.3305242E+01
 1.4632769E+01  1.3271842E+01
 1.4664407E+01  1.3276642E+01
 1.4696045E+01  1.3267903E+01
 1.4727684E+01  1.3294744E+01
 1.4759322E+01  1.3391977E+01
 1.4790960E+01  1.3353087E+01
 1.4822599E+01  1.3253029E+01
 1.4854238E+01  1.3415500E+01
 1.4885876E+01  1.3496526E+01
 1.4917514E+01  1.3556818E+01
 1.4949153E+01  1.3526637E+01
 1.4980791E+01  1.3516245E+01
 1.5012429E+01  1.3490893E+01
 1.5044068E+01  1.3564762E+01
 1.5075706E+01  1.3659914E+01
 1.5107345E+01  1.3669599E+01
 1.5138983E+01  1.3576452E+01
 1.5170622E+01  1.3640952E+01
 1.5202260E+01  1.3668974E+01
 1.5233898E+01  1.3744555E+01
 1.5265537E+01  1.3837029E+01
 1.5297175E+01  1.3760511E+01
 1.5328814E+01  1.3756392E+01
 1.5360452E+01  1.3847051E+01
 1.5392091E+01  1.3819974E+01
 1.5423729E+01  1.3784748E+01
 1.5455367E+01  1.3711699E+01
 1.5487006E+01  1.3733059E+01
 1.5518644E+01  1.3720052E+01
 1.5550282E+01  1.3512784E+01
 1.5581921E+01  1.3573339E+01
 1.5613560E+01  1.3803049E+01
 1.5645198E+01  1.3953529E+01
 1.5676836E+01  1.5482643E+01
 1.5708475E+01  2.0871849E+01
 1.5740113E+01  2.8988096E+01
 1.5771751E+01  2.9668074E+01
 1.5803390E+01  2.4163946E+01
 1.5835029E+01  1.7632610E+01
 1.5866667E+01  1.5167316E+01
 1.5898305E+01  1.4491375E+01
 1.5929944E+01  1.4141870E+01
 1.5961582E+01  1.3860852E+01
 1.5993220E+01  1.3708997E+01
 1.6024858E+01  1.3619256E+01
 1.6056498E+01  1.3509885E+01
 1.6088135E+01  1.3489882E+01
 1.6119774E+01  1.3349678E+01
 1.6151413E+01  1.3155285E+01
 1.6183050E+01  1.2911343E+01
 1.6214689E+01  1.2862995E+01
 1.6246328E+01  1.2891783E+01
 1.6277966E+01  1.2837359E+01
 1.6309605E+01  1.2738073E+01
 1.6341244E+01  1.2737688E+01
 1.6372881E+01  1.2671978E+01
 1.6404520E+01  1.2625485E+01
 1.6436159E+01  1.2654898E+01
 1.6467796E+01  1.2675767E+01
 1.6499435E+01  1.2671609E+01
 1.6531073E+01  1.2690128E+01
 1.6562712E+01  1.2902758E+01
 1.6594351E+01  1.3028459E+01
 1.6625988E+01  1.3140226E+01
 1.6657627E+01  1.3927679E+01
 1.6689266E+01  1.7354033E+01
 1.6720903E+01  2.4442295E+01
 1.6752542E+01  3.0210226E+01
 1.6784182E+01  2.7977514E+01
 1.6815819E+01  2.3822113E+01
 1.6847458E+01  2.8971334E+01
 1.6879097E+01  6.0803474E+01
 1.6910734E+01  1.1890629E+02
 1.6942373E+01  1.6021114E+02
 1.6974010E+01  1.4419759E+02
 1.7005650E+01  8.1949532E+01
 1.7037289E+01  3.6500389E+01
 1.7068926E+01  2.0976526E+01
 1.7100565E+01  1.6305275E+01
 1.7132204E+01  1.4365066E+01
 1.7163841E+01  1.3545969E+01
 1.7195480E+01  1.2984652E+01
 1.7227119E+01  1.2565436E+01
 1.7258757E+01  1.2359468E+01
 1.7290396E+01  1.2113678E+01
 1.7322035E+01  1.1940680E+01
 1.7353672E+01  1.1878808E+01
 1.7385311E+01  1.1825737E+01
 1.7416948E+01  1.1885663E+01
 1.7448587E+01  1.1846482E+01
 1.7480227E+01  1.1740515E+01
 1.7511864E+01  1.1761310E+01
 1.7543503E+01  1.1645868E+01
 1.7575142E+01  1.1619632E+01
 1.7606779E+01  1.1678262E+01
 1.7638418E+01  1.1662606E+01
 1.7670057E+01  1.1755548E+01
 1.7701694E+01  1.1921689E+01
 1.7733334E+01  1.2160585E+01
 1.7764973E+01  1.2726667E+01
 1.7796610E+01  1.4340518E+01
 1.7828249E+01  1.6398710E+01
 1.7859886E+01  1.7455996E+01
 1.7891525E+01  1.6509369E+01
 1.7923164E+01  1.4042797E+01
 1.7954802E+01  1.2366023E+01
 1.7986441E+01  1.1851656E+01
 1.8018080E+01  1.1652071E+01
 1.8049717E+01  1.1587960E+01
 1.8081356E+01  1.1517158E+01
 1.8112995E+01  1.1465728E+01
 1.8144632E+01  1.1479202E+01
 1.8176271E+01  1.1452818E+01
 1.8207911E+01  1.1369663E+01
 1.8239548E+01  1.1404649E+01
 1.8271187E+01  1.1479506E+01
 1.8302824E+01  1.1476819E+01
 1.8334463E+01  1.1356283E+01
 1.8366102E+01  1.1370498E+01
 1.8397739E+01  1.1326118E+01
 1.8429379E+01  1.1419632E+01
 1.8461018E+01  1.1416656E+01
 1.8492655E+01  1.1287467E+01
 1.8524294E+01  1.1115127E+01
 1.8555933E+01  1.1095968E+01
 1.8587570E+01  1.1024134E+01
 1.8619209E+01  1.1040678E+01
 1.8650848E+01  1.0984441E+01
 1.8682486E+01  1.0878095E+01
 1.8714125E+01  1.0656590E+01
 1.8745762E+01  1.0672257E+01
 1.8777401E+01  1.0621180E+01
 1.8809040E+01  1.0630974E+01
 1.8840677E+01  1.0672983E+01
 1.8872316E+01  1.0587386E+01
 1.8903955E+01  1.0433161E+01
 1.8935593E+01  1.0376987E+01
 1.8967232E+01  1.0375627E+01
 1.8998871E+01  1.0269302E+01
 1.9030508E+01  1.0276400E+01
 1.9062147E+01  1.0204182E+01
 1.9093786E+01  1.0199170E+01
 1.9125423E+01  1.0101695E+01
 1.9157063E+01  1.0088311E+01
 1.9188700E+01  1.0121558E+01
 1.9220339E+01  1.0092708E+01
 1.9251978E+01  9.9704580E+00
 1.9283615E+01  9.8693409E+00
 1.9315254E+01  9.7770700E+00
 1.9346893E+01  9.4805737E+00
 1.9378531E+01  9.4159985E+00
 1.9410170E+01  9.3053370E+00
 1.9441809E+01  9.1771784E+00
 1.9473446E+01  9.1528034E+00
 1.9505085E+01  9.0820990E+00
 1.9536724E+01  9.0203781E+00
 1.9568361E+01  8.9554710E+00
 1.9600000E+01  8.8447390E+00
 1.9631639E+01  8.7636328E+00
 1.9663277E+01  8.7789326E+00
 1.9694916E+01  8.5495014E+00
 1.9726553E+01  8.4928427E+00
 1.9758192E+01  8.5038843E+00
 1.9789831E+01  8.3281374E+00
 1.9821468E+01  8.2353687E+00
 1.9853107E+01  8.1080914E+00
 1.9884747E+01  8.0693598E+00
 1.9916384E+01  8.0390148E+00
 1.9948023E+01  7.9384341E+00
 1.9979662E+01  7.9051900E+00
 2.0011299E+01  7.7914481E+00
 2.0042938E+01  7.6725988E+00
 2.0074577E+01  7.6382055E+00
 2.0106215E+01  7.6266026E+00
 2.0137854E+01  7.4351864E+00
 2.0169491E+01  7.4547791E+00
 2.0201130E+01  7.4815907E+00
 2.0232769E+01  7.3784213E+00
 2.0264406E+01  7.2459102E+00
 2.0296045E+01  7.1236391E+00
 2.0327684E+01  7.0187783E+00
 2.0359322E+01  6.9416714E+00
 2.0390961E+01  6.8358426E+00
 2.0422600E+01  6.8700233E+00
 2.0454237E+01  6.8750701E+00
 2.0485876E+01  6.8080759E+00
 2.0517515E+01  6.7326641E+00
 2.0549152E+01  6.6495285E+00
 2.0580791E+01  6.6253562E+00
 2.0612429E+01  6.4996133E+00
 2.0644068E+01  6.5181413E+00
 2.0675707E+01  6.5348811E+00
 2.0707344E+01  6.5170164E+00
 2.0738983E+01  6.5139790E+00
 2.0770622E+01  6.4601498E+00
 2.0802259E+01  6.3889184E+00
 2.0833899E+01  6.4666343E+00
 2.0865538E+01  6.5185137E+00
 2.0897175E+01  6.5322442E+00
 2.0928814E+01  6.5235953E+00
 2.0960453E+01  6.5530796E+00
 2.0992090E+01  6.5263519E+00
 2.1023729E+01  6.4831104E+00
 2.1055367E+01  6.5965371E+00
 2.1087006E+01  6.7006540E+00
 2.1118645E+01  6.6430650E+00
 2.1150282E+01  6.6222715E+00
 2.1181921E+01  6.6160789E+00
 2.1213560E+01  6.5806928E+00
 2.1245197E+01  6.5606661E+00
 2.1276836E+01  6.4748859E+00
 2.1308475E+01  6.4885125E+00
 2.1340113E+01  6.4817667E+00
 2.1371752E+01  6.4635029E+00
 2.1403391E+01  6.4609942E+00
 2.1435028E+01  6.4827023E+00
 2.1466667E+01  6.4282999E+00
 2.1498304E+01  6.3642793E+00
 2.1529943E+01  6.2920289E+00
 2.1561583E+01  6.2481828E+00
 2.1593220E+01  6.2603321E+00
 2.1624859E+01  6.2601995E+00
 2.1656498E+01  6.2961884E+00
 2.1688135E+01  6.2949166E+00
 2.1719774E+01  6.2552929E+00
 2.1751413E+01  6.1998210E+00
 2.1783051E+01  6.1504669E+00
 2.1814690E+01  6.1990108E+00
 2.1846329E+01  6.1871185E+00
 2.1877966E+01  6.1355438E+00
 2.1909605E+01  6.1715369E+00
 2.1941242E+01  6.1683207E+00
 2.1972881E+01  6.0556688E+00
 2.2004520E+01  6.0497346E+00
 2.2036158E+01  6.0795612E+00
 2.2067797E+01  6.0679274E+00
 2.2099436E+01  6.0797086E+00
 2.2131073E+01  6.0959373E+00
 2.2162712E+01  6.0593667E+00
 2.2194351E+01  6.0431247E+00
 2.2225988E+01  6.0369740E+00
 2.2257627E+01  6.0006595E+00
 2.2289267E+01  6.0528531E+00
 2.2320904E+01  6.0982189E+00
 2.2352543E+01  6.0815272E+00
 2.2384180E+01  6.1038198E+00
 2.2415819E+01  6.1113830E+00
 2.2447458E+01  6.1173620E+00
 2.2479095E+01  6.1274452E+00
 2.2510735E+01  6.1853018E+00
 2.2542374E+01  6.1385832E+00
 2.2574011E+01  6.1749625E+00
 2.2605650E+01  6.2175031E+00
 2.2637289E+01  6.3184018E+00
 2.2668926E+01  6.3877373E+00
 2.2700565E+01  6.4713192E+00
 2.2732204E+01  6.5573254E+00
 2.2763842E+01  6.6776443E+00
 2.2795481E+01  6.8533893E+00
 2.2827118E+01  7.0875063E+00
 2.2858757E+01  7.3367114E+00
 2.2890396E+01  7.8273807E+00
 2.2922033E+01  8.4603386E+00
 2.2953672E+01  9.5650034E+00
 2.2985312E+01  1.1660256E+01
 2.3016949E+01  1.6138058E+01
 2.3048588E+01  2.7822433E+01
 2.3080227E+01  6.3367180E+01
 2.3111864E+01  1.4754105E+02
 2.3143503E+01  2.3113528E+02
 2.3175142E+01  2.0091840E+02
 2.3206779E+01  9.5591911E+01
 2.3238419E+01  3.5553226E+01
 2.3270056E+01  1.7913010E+01
 2.3301695E+01  1.2257972E+01
 2.3333334E+01  9.8116407E+00
 2.3364971E+01  8.4887228E+00
 2.3396610E+01  7.7852349E+00
 2.3428249E+01  7.2895246E+00
 2.3459887E+01  6.9177794E+00
 2.3491526E+01  6.6490960E+00
 2.3523165E+01  6.3732491E+00
 2.3554802E+01  6.3052306E+00
 2.3586441E+01  6.1936693E+00
 2.3618080E+01  6.0458012E+00
 2.3649717E+01  6.0117226E+00
 2.3681356E+01  5.9990034E+00
 2.3712994E+01  5.9897304E+00
 2.3744633E+01  5.8709631E+00
 2.3776272E+01  5.7804708E+00
 2.3807909E+01  5.7349496E+00
 2.3839548E+01  5.7753649E+00
 2.3871187E+01  5.8371711E+00
 2.3902824E+01  5.7829156E+00
 2.3934464E+01  5.7472634E+00
 2.3966103E+01  5.6866622E+00
 2.3997740E+01  5.6888013E+00
 2.4029379E+01  5.7134995E+00
 2.4061018E+01  5.7149262E+00
 2.4092655E+01  5.6752820E+00
 2.4124294E+01  5.6841102E+00
 2.4155931E+01  5.6536002E+00
 2.4187571E+01  5.6290665E+00
 2.4219210E+01  5.6546426E+00
 2.4250847E+01  5.7165256E+00
 2.4282486E+01  5.7645774E+00
 2.4314125E+01  5.7596850E+00
 2.4345762E+01  5.7838731E+00
 2.4377401E+01  5.8357773E+00
 2.4409040E+01  5.7695298E+00
 2.4440678E+01  5.7134013E+00
 2.4472317E+01  5.7919698E+00
 2.4503956E+01  5.7939501E+00
 2.4535593E+01  5.8001041E+00
 2.4567232E+01  5.9948020E+00
 2.4598869E+01  6.0252395E+00
 2.4630508E+01  6.0722117E+00
 2.4662148E+01  6.2458239E+00
 2.4693785E+01  6.4875727E+00
 2.4725424E+01  6.8556948E+00
 2.4757063E+01  7.5514030E+00
 2.4788700E+01  8.9221611E+00
 2.4820339E+01  1.2114853E+01
 2.4851978E+01  2.3591076E+01
 2.4883615E+01  7.2785126E+01
 2.4915255E+01  1.8786072E+02
 2.4946894E+01  2.3959854E+02
 2.4978531E+01  1.3735301E+02
 2.5010170E+01  4.3421761E+01
 2.5041807E+01  1.6511742E+01
 2.5073446E+01  1.0250704E+01
 2.5105085E+01  8.1322107E+00
 2.5136723E+01  7.2342548E+00
 2.5168362E+01  6.6970139E+00
 2.5200001E+01  6.3535666E+00
 2.5231638E+01  6.2027779E+00
 2.5263277E+01  6.0447164E+00
 2.5294916E+01  5.9126840E+00
 2.5326553E+01  5.8219404E+00
 2.5358192E+01  5.8523021E+00
 2.5389832E+01  5.8043990E+00
 2.5421469E+01  5.7712317E+00
 2.5453108E+01  5.8078599E+00
 2.5484745E+01  5.7999892E+00
 2.5516384E+01  5.7458982E+00
 2.5548023E+01  5.6544657E+00
 2.5579660E+01  5.6230335E+00
 2.5611300E+01  5.5984840E+00
 2.5642939E+01  5.5256810E+00
 2.5674576E+01  5.5116577E+00
 2.5706215E+01  5.5308518E+00
 2.5737854E+01  5.5046377E+00
 2.5769491E+01  5.5113425E+00
 2.5801130E+01  5.4145079E+00
 2.5832769E+01  5.3989530E+00
 2.5864407E+01  5.3601317E+00
 2.5896046E+01  5.3694320E+00
 2.5927683E+01  5.3281641E+00
 2.5959322E+01  5.3248200E+00
 2.5990961E+01  5.3101797E+00
 2.6022598E+01  5.2495713E+00
 2.6054237E+01  5.2478585E+00
 2.6085876E+01  5.3122854E+00
 2.6117514E+01  5.3114233E+00
 2.6149153E+01  5.2591934E+00
 2.6180792E+01  5.3340974E+00
 2.6212429E+01  5.2875328E+00
 2.6244068E+01  5.2579837E+00
 2.6275707E+01  5.2299571E+00
 2.6307344E+01  5.2862639E+00
 2.6338984E+01  5.2489238E+00
 2.6370621E+01  5.1607242E+00
 2.6402260E+01  5.2311726E+00
 2.6433899E+01  5.1468229E+00
 2.6465536E+01  5.1712914E+00
 2.6497175E+01  5.1978045E+00
 2.6528814E+01  5.2173486E+00
 2.6560452E+01  5.2299309E+00
 2.6592091E+01  5.1710639E+00
 2.6623730E+01  5.1547256E+00
 2.6655367E+01  5.1261501E+00
 2.6687006E+01  5.1509910E+00
 2.6718645E+01  5.1492977E+00
 2.6750282E+01  5.1222167E+00
 2.6781921E+01  5.1484261E+00
 2.6813559E+01  5.1632767E+00
 2.6845198E+01  5.1434193E+00
 2.6876837E+01  5.1192999E+00
 2.6908474E+01  5.1336074E+00
 2.6940113E+01  5.1906605E+00
 2.6971752E+01  5.2289567E+00
 2.7003389E+01  5.2513361E+00
 2.7035028E+01  5.2299824E+00
 2.7066668E+01  5.2272944E+00
 2.7098305E+01  5.3605676E+00
 2.7129944E+01  5.4792132E+00
 2.7161583E+01  5.7776241E+00
 2.7193220E+01  6.6993918E+00
 2.7224859E+01  1.0050259E+01
 2.7256496E+01  1.7520720E+01
 2.7288136E+01  2.1508307E+01
 2.7319775E+01  1.5114882E+01
 2.7351412E+01  8.6973677E+00
 2.7383051E+01  7.3189993E+00
 2.7414690E+01  1.1141302E+01
 2.7446327E+01  1.9407173E+01
 2.7477966E+01  2.0792761E+01
 2.7509605E+01  1.2883876E+01
 2.7541243E+01  6.9054508E+00
 2.7572882E+01  5.6161470E+00
 2.7604521E+01  5.3821459E+00
 2.7636158E+01  5.2792163E+00
 2.7667797E+01  5.2369323E+00
 2.7699434E+01  5.1839771E+00
 2.7731073E+01  5.1902900E+00
 2.7762712E+01  5.1800661E+00
 2.7794350E+01  5.1951003E+00
 2.7825989E+01  5.2095690E+00
 2.7857628E+01  5.2298632E+00
 2.7889265E+01  5.2476702E+00
 2.7920904E+01  5.2033968E+00
 2.7952543E+01  5.2537813E+00
 2.7984180E+01  5.2566957E+00
 2.8015820E+01  5.1680484E+00
 2.8047459E+01  5.1948223E+00
 2.8079096E+01  5.2826166E+00
 2.8110735E+01  5.3044357E+00
 2.8142372E+01  5.2993684E+00
 2.8174011E+01  5.2529860E+00
 2.8205650E+01  5.2552676E+00
 2.8237288E+01  5.4154930E+00
 2.8268927E+01  5.5762963E+00
 2.8300566E+01  5.7759485E+00
 2.8332203E+01  6.2815151E+00
 2.8363842E+01  7.4204326E+00
 2.8395481E+01  1.0975746E+01
 2.8427118E+01  2.5108881E+01
 2.8458757E+01  6.4915482E+01
 2.8490396E+01  9.1276550E+01
 2.8522034E+01  5.5343269E+01
 2.8553673E+01  2.0649498E+01
 2.8585310E+01  9.6823969E+00
 2.8616949E+01  6.8292503E+00
 2.8648588E+01  5.8393850E+00
 2.8680225E+01  5.4084749E+00
 2.8711864E+01  5.1155515E+00
 2.8743504E+01  4.8546076E+00
 2.8775141E+01  4.7071586E+00
 2.8806780E+01  4.7128539E+00
 2.8838419E+01  4.6904325E+00
 2.8870056E+01  4.6258984E+00
 2.8901695E+01  4.5835400E+00
 2.8933334E+01  4.5311728E+00
 2.8964972E+01  4.4708929E+00
 2.8996611E+01  4.4716797E+00
 2.9028248E+01  4.4542031E+00
 2.9059887E+01  4.4802461E+00
 2.9091526E+01  4.4199090E+00
 2.9123163E+01  4.3728375E+00
 2.9154802E+01  4.3140197E+00
 2.9186441E+01  4.3341303E+00
 2.9218079E+01  4.3241072E+00
 2.9249718E+01  4.3159366E+00
 2.9281357E+01  4.3024240E+00
 2.9312994E+01  4.3243670E+00
 2.9344633E+01  4.4167786E+00
 2.9376272E+01  4.4589229E+00
 2.9407909E+01  4.4893751E+00
 2.9439548E+01  4.5548763E+00
 2.9471186E+01  4.5931315E+00
 2.9502825E+01  4.6163416E+00
 2.9534464E+01  4.5912838E+00
 2.9566101E+01  4.5941129E+00
 2.9597740E+01  4.5897698E+00
 2.9629379E+01  4.5983834E+00
 2.9661016E+01  4.6928148E+00
 2.9692656E+01  4.7687664E+00
 2.9724295E+01  4.8187203E+00
 2.9755932E+01  4.8708496E+00
 2.9787571E+01  5.0434365E+00
 2.9819210E+01  5.3196707E+00
 2.9850847E+01  6.4538589E+00
 2.9882486E+01  9.0958338E+00
 2.9914124E+01  1.0983682E+01
 2.9945763E+01  9.2968578E+00
 2.9977402E+01  6.5488257E+00
 3.0009039E+01  5.4133358E+00
 3.0040678E+01  5.1424270E+00
 3.0072317E+01  5.0982251E+00
 3.0103954E+01  5.0680389E+00
 3.0135593E+01  5.0566998E+00
 3.0167233E+01  5.2053003E+00
 3.0198870E+01  5.5375957E+00
 3.0230509E+01  6.6313334E+00
 3.0262148E+01  1.0082856E+01
 3.0293785E+01  1.6340698E+01
 3.0325424E+01  1.7599339E+01
 3.0357061E+01  1.1695429E+01
 3.0388700E+01  7.1359982E+00
 3.0420340E+01  5.5734000E+00
 3.0451977E+01  5.1394577E+00
 3.0483616E+01  4.9527187E+00
 3.0515255E+01  4.8167558E+00
 3.0546892E+01  4.7537885E+00
 3.0578531E+01  4.7383480E+00
 3.0610170E+01  4.7058616E+00
 3.0641808E+01  4.6034284E+00
 3.0673447E+01  4.6039567E+00
 3.0705086E+01  4.5993552E+00
 3.0736723E+01  4.5999851E+00
 3.0768362E+01  4.5968184E+00
 3.0799999E+01  4.5770969E+00
 3.0831638E+01  4.5126739E+00
 3.0863277E+01  4.5209446E+00
 3.0894915E+01  4.5683832E+00
 3.0926554E+01  4.4893088E+00
 3.0958193E+01  4.4927592E+00
 3.0989830E+01  4.4953189E+00
 3.1021469E+01  4.4788733E+00
 3.1053108E+01  4.4782014E+00
 3.1084745E+01  4.4696794E+00
 3.1116385E+01  4.4609833E+00
 3.1148024E+01  4.4637651E+00
 3.1179661E+01  4.4573431E+00
 3.1211300E+01  4.4513507E+00
 3.1242937E+01  4.4337296E+00
 3.1274576E+01  4.4634924E+00
 3.1306215E+01  4.4842963E+00
 3.1337852E+01  4.4374242E+00
 3.1369492E+01  4.4091916E+00
 3.1401131E+01  4.4100127E+00
 3.1432768E+01  4.4201956E+00
 3.1464407E+01  4.4106107E+00
 3.1496046E+01  4.4367156E+00
 3.1527683E+01  4.3929172E+00
 3.1559322E+01  4.4153619E+00
 3.1590961E+01  4.4266338E+00
 3.1622599E+01  4.4219937E+00
 3.1654238E+01  4.4427466E+00
 3.1685875E+01  4.4485769E+00
 3.1717514E+01  4.4277682E+00
 3.1749153E+01  4.5288105E+00
 3.1780790E+01  4.8858204E+00
 3.1812429E+01  5.5965009E+00
 3.1844069E+01  5.6623158E+00
 3.1875706E+01  5.0078974E+00
 3.1907345E+01  4.5980864E+00
 3.1938984E+01  4.5300899E+00
 3.1970621E+01  4.4974036E+00
 3.2002258E+01  4.4486351E+00
 3.2033897E+01  4.4725513E+00
 3.2065536E+01  4.4512796E+00
 3.2097176E+01  4.4129367E+00
 3.2128815E+01  4.3697505E+00
 3.2160454E+01  4.4069748E+00
 3.2192089E+01  4.3578067E+00
 3.2223728E+01  4.3683152E+00
 3.2255367E+01  4.5563636E+00
 3.2287006E+01  5.3298650E+00
 3.2318645E+01  7.9097128E+00
 3.2350285E+01  1.0669287E+01
 3.2381920E+01  9.7342062E+00
 3.2413559E+01  6.0601363E+00
 3.2445198E+01  4.5798721E+00
 3.2476837E+01  4.3189273E+00
 3.2508476E+01  4.2590723E+00
 3.2540112E+01  4.1881809E+00
 3.2571751E+01  4.1765571E+00
 3.2603390E+01  4.2115655E+00
 3.2635029E+01  4.1966867E+00
 3.2666668E+01  4.1666665E+00
 3.2698307E+01  4.1131196E+00
 3.2729942E+01  4.1115746E+00
 3.2761581E+01  4.1014438E+00
 3.2793221E+01  4.1052799E+00
 3.2824860E+01  4.1081939E+00
 3.2856499E+01  4.1556659E+00
 3.2888134E+01  4.2557578E+00
 3.2919773E+01  4.5408468E+00
 3.2951412E+01  5.0764403E+00
 3.2983051E+01  5.1107078E+00
 3.3014690E+01  4.5819578E+00
 3.3046329E+01  4.2258229E+00
 3.3077965E+01  4.1614480E+00
 3.3109604E+01  4.1097093E+00
 3.3141243E+01  4.0717754E+00
 3.3172882E+01  4.0464230E+00
 3.3204521E+01  4.0595961E+00
 3.3236160E+01  4.0199842E+00
 3.3267796E+01  4.0195479E+00
 3.3299435E+01  3.9952474E+00
 3.3331074E+01  4.0179996E+00
 3.3362713E+01  4.0203533E+00
 3.3394352E+01  4.0451407E+00
 3.3425987E+01  4.0273795E+00
 3.3457626E+01  4.0305424E+00
 3.3489265E+01  4.0260983E+00
 3.3520905E+01  4.0534363E+00
 3.3552544E+01  4.0048270E+00
 3.3584183E+01  3.9629259E+00
 3.3615818E+01  4.0165739E+00
 3.3647457E+01  3.9600022E+00
 3.3679096E+01  4.0007334E+00
 3.3710735E+01  4.0335965E+00
 3.3742374E+01  4.0841951E+00
 3.3774010E+01  4.1633244E+00
 3.3805649E+01  4.1904793E+00
 3.3837288E+01  4.1479664E+00
 3.3868927E+01  4.2106104E+00
 3.3900566E+01  4.2506585E+00
 3.3932205E+01  4.2896466E+00
 3.3963840E+01  4.3150935E+00
 3.3995480E+01  4.4435534E+00
 3.4027119E+01  4.6141758E+00
 3.4058758E+01  4.8182445E+00
 3.4090397E+01  5.2087755E+00
 3.4122036E+01  5.9162979E+00
 3.4153671E+01  7.2466216E+00
 3.4185310E+01  1.0532537E+01
 3.4216949E+01  2.0180815E+01
 3.4248589E+01  5.0568962E+01
 3.4280228E+01  9.6876923E+01
 3.4311863E+01  9.5980453E+01
 3.4343502E+01  4.9832390E+01
 3.4375141E+01  2.0183910E+01
 3.4406780E+01  1.0508445E+01
 3.4438419E+01  7.3270478E+00
 3.4470058E+01  5.9919972E+00
 3.4501694E+01  5.2709765E+00
 3.4533333E+01  4.8032904E+00
 3.4564972E+01  4.5332432E+00
 3.4596611E+01  4.3660469E+00
 3.4628250E+01  4.2536306E+00
 3.4659885E+01  4.1537218E+00
 3.4691525E+01  4.1350574E+00
 3.4723164E+01  4.0759587E+00
 3.4754803E+01  3.9710770E+00
 3.4786442E+01  3.9185531E+00
 3.4818081E+01  3.9283240E+00
 3.4849716E+01  3.8844924E+00
 3.4881355E+01  3.8313832E+00
 3.4912994E+01  3.8709381E+00
 3.4944633E+01  3.7980232E+00
 3.4976273E+01  3.8246241E+00
 3.5007912E+01  3.8253229E+00
 3.5039547E+01  3.8092504E+00
 3.5071186E+01  3.7484884E+00
 3.5102825E+01  3.7288828E+00
 3.5134464E+01  3.6927092E+00
 3.5166103E+01  3.7055416E+00
 3.5197739E+01  3.7303452E+00
 3.5229378E+01  3.6977041E+00
 3.5261017E+01  3.7720039E+00
 3.5292656E+01  3.6948652E+00
 3.5324295E+01  3.6644702E+00
 3.5355934E+01  3.6739914E+00
 3.5387569E+01  3.6945705E+00
 3.5419209E+01  3.6816769E+00
 3.5450848E+01  3.6629462E+00
 3.5482487E+01  3.7011888E+00
 3.5514126E+01  3.6350095E+00
 3.5545761E+01  3.6283431E+00
 3.5577400E+01  3.6445506E+00
 3.5609039E+01  3.6279438E+00
 3.5640678E+01  3.6738355E+00
 3.5672318E+01  3.6435354E+00
 3.5703957E+01  3.6420078E+00
 3.5735592E+01  3.5499218E+00
 3.5767231E+01  3.5504405E+00
 3.5798870E+01  3.5346978E+00
 3.5830509E+01  3.5203321E+00
 3.5862148E+01  3.4591432E+00
 3.5893787E+01  3.4880364E+00
 3.5925423E+01  3.4514849E+00
 3.5957062E+01  3.4067435E+00
 3.5988701E+01  3.4540896E+00
 3.6020340E+01  3.4146035E+00
 3.6051979E+01  3.4633687E+00
 3.6083614E+01  3.3789539E+00
 3.6115253E+01  3.3963354E+00
 3.6146893E+01  3.4202135E+00
 3.6178532E+01  3.4998238E+00
 3.6210171E+01  3.5101054E+00
 3.6241810E+01  3.3628349E+00
 3.6273445E+01  3.2852845E+00
 3.6305084E+01  3.2679794E+00
 3.6336723E+01  3.2643967E+00
 3.6368362E+01  3.2360916E+00
 3.6400002E+01  3.2379353E+00
 3.6431637E+01  3.2325759E+00
 3.6463276E+01  3.2283683E+00
 3.6494915E+01  3.2088878E+00
 3.6526554E+01  3.2239594E+00
 3.6558193E+01  3.2169125E+00
 3.6589832E+01  3.2464797E+00
 3.6621468E+01  3.2903097E+00
 3.6653107E+01  3.3381112E+00
 3.6684746E+01  3.3988316E+00
 3.6716385E+01  3.4369292E+00
 3.6748024E+01  3.4640410E+00
 3.6779663E+01  3.5093918E+00
 3.6811298E+01  3.5462439E+00
 3.6842937E+01  3.6352654E+00
 3.6874577E+01  3.7204425E+00
 3.6906216E+01  3.8098412E+00
 3.6937855E+01  3.9631503E+00
 3.6969490E+01  4.1199298E+00
 3.7001129E+01  4.3524437E+00
 3.7032768E+01  4.6610708E+00
 3.7064407E+01  5.1428299E+00
 3.7096046E+01  5.8704338E+00
 3.7127686E+01  7.1662178E+00
 3.7159321E+01  9.6073408E+00
 3.7190960E+01  1.5173496E+01
 3.7222599E+01  3.1982656E+01
 3.7254238E+01  9.2162071E+01
 3.7285877E+01  2.1254735E+02
 3.7317513E+01  2.5354689E+02
 3.7349152E+01  1.5712126E+02
 3.7380791E+01  5.9733570E+01
 3.7412430E+01  2.2714672E+01
 3.7444069E+01  1.2155781E+01
 3.7475708E+01  8.2458935E+00
 3.7507343E+01  6.4866905E+00
 3.7538982E+01  5.5271430E+00
 3.7570621E+01  4.9154034E+00
 3.7602261E+01  4.5584369E+00
 3.7633900E+01  4.3010840E+00
 3.7665539E+01  4.0810223E+00
 3.7697174E+01  3.9540863E+00
 3.7728813E+01  3.8820758E+00
 3.7760452E+01  3.6808913E+00
 3.7792091E+01  3.6163313E+00
 3.7823730E+01  3.6135616E+00
 3.7855366E+01  3.5231662E+00
 3.7887005E+01  3.4997070E+00
 3.7918644E+01  3.4533012E+00
 3.7950283E+01  3.4183333E+00
 3.7981922E+01  3.4094262E+00
 3.8013561E+01  3.4156888E+00
 3.8045197E+01  3.3701341E+00
 3.8076836E+01  3.3141243E+00
 3.8108475E+01  3.2704375E+00
 3.8140114E+01  3.3335147E+00
 3.8171753E+01  3.3199987E+00
 3.8203388E+01  3.2886086E+00
 3.8235027E+01  3.2238750E+00
 3.8266666E+01  3.2455351E+00
 3.8298306E+01  3.2638772E+00
 3.8329945E+01  3.2641592E+00
 3.8361584E+01  3.2229412E+00
 3.8393219E+01  3.2432318E+00
 3.8424858E+01  3.2367291E+00
 3.8456497E+01  3.2103887E+00
 3.8488136E+01  3.1992390E+00
 3.8519775E+01  3.2826545E+00
 3.8551414E+01  3.2893317E+00
 3.8583050E+01  3.2485125E+00
 3.8614689E+01  3.1991160E+00
 3.8646328E+01  3.2361794E+00
 3.8677967E+01  3.2277629E+00
 3.8709606E+01  3.3589516E+00
 3.8741241E+01  3.5575674E+00
 3.8772881E+01  4.3040242E+00
 3.8804520E+01  4.9773359E+00
 3.8836159E+01  4.7586231E+00
 3.8867798E+01  4.0807281E+00
 3.8899437E+01  3.5533934E+00
 3.8931072E+01  3.3045549E+00
 3.8962711E+01  3.2438064E+00
 3.8994350E+01  3.1649981E+00
 3.9025990E+01  3.1723163E+00
 3.9057629E+01  3.1570361E+00
 3.9089264E+01  3.0848379E+00
 3.9120903E+01  3.1356249E+00
 3.9152542E+01  3.1374817E+00
 3.9184181E+01  3.1140985E+00
 3.9215820E+01  3.1396990E+00
 3.9247459E+01  3.1328740E+00
 3.9279095E+01  3.2024329E+00
 3.9310734E+01  3.2619672E+00
 3.9342373E+01  3.2215419E+00
 3.9374012E+01  3.2865999E+00
 3.9405651E+01  3.3827624E+00
 3.9437290E+01  3.5385087E+00
 3.9468925E+01  3.9889610E+00
 3.9500565E+01  5.2927318E+00
 3.9532204E+01  7.7530313E+00
 3.9563843E+01  9.4185190E+00
 3.9595482E+01  1.1572430E+01
 3.9627117E+01  1.5838765E+01
 3.9658756E+01  1.7438969E+01
 3.9690395E+01  1.4381192E+01
 3.9722034E+01  8.8318062E+00
 3.9753674E+01  5.3520784E+00
 3.9785313E+01  4.1462417E+00
 3.9816948E+01  3.6278346E+00
 3.9848587E+01  3.3921828E+00
 3.9880226E+01  3.3424661E+00
 3.9911865E+01  3.2232294E+00
 3.9943504E+01  3.1271379E+00
 3.9975140E+01  3.1149733E+00
 4.0006779E+01  3.0821149E+00
 4.0038418E+01  3.0442350E+00
 4.0070057E+01  3.0312781E+00
 4.0101696E+01  3.0908933E+00
 4.0133335E+01  3.0817256E+00
 4.0164970E+01  3.0691719E+00
 4.0196609E+01  3.0526078E+00
 4.0228249E+01  3.0545688E+00
 4.0259888E+01  3.0141141E+00
 4.0291527E+01  3.0502238E+00
 4.0323166E+01  2.9742079E+00
 4.0354801E+01  2.9847243E+00
 4.0386440E+01  3.0195248E+00
 4.0418079E+01  2.9382205E+00
 4.0449718E+01  2.9889736E+00
 4.0481358E+01  2.9785020E+00
 4.0512993E+01  2.9485762E+00
 4.0544632E+01  2.9585404E+00
 4.0576271E+01  2.9618108E+00
 4.0607910E+01  2.9699216E+00
 4.0639549E+01  3.0067475E+00
 4.0671188E+01  3.0087833E+00
 4.0702824E+01  2.9945557E+00
 4.0734463E+01  3.0412791E+00
 4.0766102E+01  3.0378997E+00
 4.0797741E+01  3.0096719E+00
 4.0829380E+01  3.0214236E+00
 4.0861015E+01  3.0099404E+00
 4.0892654E+01  3.0647788E+00
 4.0924294E+01  3.1073117E+00
 4.0955933E+01  3.0695851E+00
 4.0987572E+01  3.2101021E+00
 4.1019211E+01  3.5018957E+00
 4.1050846E+01  3.9784172E+00
 4.1082485E+01  4.3176312E+00
 4.1114124E+01  4.2254257E+00
 4.1145763E+01  3.7298644E+00
 4.1177402E+01  3.2415318E+00
 4.1209042E+01  3.0717926E+00
 4.1240677E+01  3.0309434E+00
 4.1272316E+01  3.0048933E+00
 4.1303955E+01  2.9755473E+00
 4.1335594E+01  2.9683700E+00
 4.1367233E+01  2.9803543E+00
 4.1398869E+01  2.9235625E+00
 4.1430508E+01  2.9268010E+00
 4.1462147E+01  2.9418318E+00
 4.1493786E+01  2.9215629E+00
 4.1525425E+01  2.9548283E+00
 4.1557064E+01  2.9686713E+00
 4.1588699E+01  2.9555604E+00
 4.1620338E+01  2.9166217E+00
 4.1651978E+01  2.9327095E+00
 4.1683617E+01  2.9399459E+00
 4.1715256E+01  2.9255140E+00
 4.1746891E+01  2.9559431E+00
 4.1778530E+01  2.9416735E+00
 4.1810169E+01  2.9287508E+00
 4.1841808E+01  2.9444139E+00
 4.1873447E+01  2.9241230E+00
 4.1905087E+01  2.9564011E+00
 4.1936722E+01  3.0039754E+00
 4.1968361E+01  2.9902668E+00
 4.2000000E+01  2.9983757E+00
 4.2031639E+01  3.0789483E+00
 4.2063278E+01  3.0529006E+00
 4.2094917E+01  3.0580966E+00
 4.2126553E+01  3.0871663E+00
 4.2158192E+01  3.0619776E+00
 4.2189831E+01  3.0641479E+00
 4.2221470E+01  3.0311267E+00
 4.2253109E+01  3.0172215E+00
 4.2284744E+01  2.9693272E+00
 4.2316383E+01  2.8662045E+00
 4.2348022E+01  2.8371713E+00
 4.2379662E+01  2.8859134E+00
 4.2411301E+01  2.8371530E+00
 4.2442940E+01  2.8487401E+00
 4.2474575E+01  2.9395218E+00
 4.2506214E+01  3.1487060E+00
 4.2537853E+01  3.4437435E+00
 4.2569492E+01  3.6348412E+00
 4.2601131E+01  3.7071598E+00
 4.2632767E+01  3.6169126E+00
 4.2664406E+01  3.8014731E+00
 4.2696045E+01  4.3583565E+00
 4.2727684E+01  5.3804998E+00
 4.2759323E+01  7.8391418E+00
 4.2790962E+01  1.4126483E+01
 4.2822598E+01  3.2428394E+01
 4.2854237E+01  6.1288662E+01
 4.2885876E+01  6.6715508E+01
 4.2917515E+01  5.7899452E+01
 4.2949154E+01  3.5322224E+01
 4.2980793E+01  1.6239624E+01
 4.3012428E+01  8.8428650E+00
 4.3044067E+01  5.9934301E+00
 4.3075706E+01  4.7365994E+00
 4.3107346E+01  4.0660224E+00
 4.3138985E+01  3.6985712E+00
 4.3170620E+01  3.4391508E+00
 4.3202259E+01  3.3109481E+00
 4.3233898E+01  3.2662864E+00
 4.3265537E+01  3.1732047E+00
 4.3297176E+01  3.1012545E+00
 4.3328815E+01  3.1220989E+00
 4.3360451E+01  3.1495318E+00
 4.3392090E+01  3.2800286E+00
 4.3423729E+01  3.4065964E+00
 4.3455368E+01  3.4049706E+00
 4.3487007E+01  3.3610439E+00
 4.3518642E+01  3.2383583E+00
 4.3550282E+01  3.1435084E+00
 4.3581921E+01  3.1365664E+00
 4.3613560E+01  3.1851969E+00
 4.3645199E+01  3.2751126E+00
 4.3676838E+01  3.3902380E+00
 4.3708473E+01  3.6517444E+00
 4.3740112E+01  4.1061249E+00
 4.3771751E+01  4.9020147E+00
 4.3803391E+01  6.5911388E+00
 4.3835030E+01  1.0803391E+01
 4.3866669E+01  2.4709341E+01
 4.3898304E+01  6.7195030E+01
 4.3929943E+01  1.0157117E+02
 4.3961582E+01  8.9667091E+01
 4.3993221E+01  7.0337227E+01
 4.4024860E+01  3.5188572E+01
 4.4056496E+01  1.4248591E+01
 4.4088135E+01  7.6382670E+00
 4.4119774E+01  5.3541193E+00
 4.4151413E+01  4.3615932E+00
 4.4183052E+01  3.8121896E+00
 4.4214691E+01  3.5052567E+00
 4.4246326E+01  3.2810168E+00
 4.4277966E+01  3.2146685E+00
 4.4309605E+01  3.1293256E+00
 4.4341244E+01  3.0527530E+00
 4.4372883E+01  2.9903111E+00
 4.4404518E+01  2.9222450E+00
 4.4436157E+01  2.8791115E+00
 4.4467796E+01  2.8771646E+00
 4.4499435E+01  2.8610659E+00
 4.4531075E+01  2.8013875E+00
 4.4562714E+01  2.7474556E+00
 4.4594349E+01  2.7481358E+00
 4.4625988E+01  2.7621081E+00
 4.4657627E+01  2.8281255E+00
 4.4689266E+01  2.7492814E+00
 4.4720905E+01  2.7551847E+00
 4.4752544E+01  2.7676215E+00
 4.4784180E+01  2.7402942E+00
 4.4815819E+01  2.7453015E+00
 4.4847458E+01  2.7286909E+00
 4.4879097E+01  2.7349613E+00
 4.4910736E+01  2.7566762E+00
 4.4942371E+01  2.7475433E+00
 4.4974010E+01  2.7161164E+00
 4.5005650E+01  2.7047141E+00
 4.5037289E+01  2.7431910E+00
 4.5068928E+01  2.7968657E+00
 4.5100567E+01  2.9136753E+00
 4.5132202E+01  3.2525332E+00
 4.5163841E+01  3.5474167E+00
 4.5195480E+01  3.3904827E+00
 4.5227119E+01  3.3437974E+00
 4.5258759E+01  3.0891151E+00
 4.5290398E+01  2.8419287E+00
 4.5322033E+01  2.7661114E+00
 4.5353672E+01  2.7399349E+00
 4.5385311E+01  2.6818681E+00
 4.5416950E+01  2.7114151E+00
 4.5448589E+01  2.7199376E+00
 4.5480225E+01  2.6815448E+00
 4.5511864E+01  2.6772861E+00
 4.5543503E+01  2.6718779E+00
 4.5575142E+01  2.6257586E+00
 4.5606781E+01  2.6902719E+00
 4.5638420E+01  2.7007647E+00
 4.5670055E+01  2.7114270E+00
 4.5701694E+01  2.6800227E+00
 4.5733334E+01  2.7031577E+00
 4.5764973E+01  2.7279985E+00
 4.5796612E+01  2.8495927E+00
 4.5828247E+01  2.9914365E+00
 4.5859886E+01  3.1968205E+00
 4.5891525E+01  3.2973421E+00
 4.5923164E+01  3.2281160E+00
 4.5954803E+01  3.0525389E+00
 4.5986443E+01  2.8944092E+00
 4.6018078E+01  2.9284136E+00
 4.6049717E+01  2.9097047E+00
 4.6081356E+01  2.9056084E+00
 4.6112995E+01  2.9463170E+00
 4.6144634E+01  2.7826061E+00
 4.6176273E+01  2.7151966E+00
 4.6207909E+01  2.6742284E+00
 4.6239548E+01  2.6927018E+00
 4.6271187E+01  2.6702743E+00
 4.6302826E+01  2.6524577E+00
 4.6334465E+01  2.6374159E+00
 4.6366100E+01  2.6736662E+00
 4.6397739E+01  2.6375215E+00
 4.6429379E+01  2.6653900E+00
 4.6461018E+01  2.6317081E+00
 4.6492657E+01  2.6617870E+00
 4.6524296E+01  2.6590304E+00
 4.6555931E+01  2.6725376E+00
 4.6587570E+01  2.6932926E+00
 4.6619209E+01  2.6521566E+00
 4.6650848E+01  2.6756001E+00
 4.6682487E+01  2.6598458E+00
 4.6714123E+01  2.6454144E+00
 4.6745762E+01  2.6753953E+00
 4.6777401E+01  2.6972129E+00
 4.6809040E+01  2.7022991E+00
 4.6840679E+01  2.7170572E+00
 4.6872318E+01  2.6870165E+00
 4.6903954E+01  2.6780221E+00
 4.6935593E+01  2.6541739E+00
 4.6967232E+01  2.6784999E+00
 4.6998871E+01  2.7119613E+00
 4.7030510E+01  2.7255502E+00
 4.7062149E+01  2.7520962E+00
 4.7093784E+01  2.7616620E+00
 4.7125423E+01  2.7376990E+00
 4.7157063E+01  2.7423012E+00
 4.7188702E+01  2.7228940E+00
 4.7220341E+01  2.8027775E+00
 4.7251976E+01  2.8678782E+00
 4.7283615E+01  3.0277517E+00
 4.7315254E+01  3.3306358E+00
 4.7346893E+01  3.2711957E+00
 4.7378532E+01  3.2512801E+00
 4.7410172E+01  3.2280145E+00
 4.7441807E+01  3.0318625E+00
 4.7473446E+01  2.8805094E+00
 4.7505085E+01  2.7897549E+00
 4.7536724E+01  2.7427771E+00
 4.7568363E+01  2.7676854E+00
 4.7599998E+01  2.7367976E+00
 4.7631638E+01  2.7178438E+00
 4.7663277E+01  2.7739358E+00
 4.7694916E+01  2.7143123E+00
 4.7726555E+01  2.6884267E+00
 4.7758194E+01  2.6647549E+00
 4.7789829E+01  2.7241974E+00
 4.7821468E+01  2.6902723E+00
 4.7853107E+01  2.7119775E+00
 4.7884747E+01  2.7093732E+00
 4.7916386E+01  2.6893396E+00
 4.7948025E+01  2.7291775E+00
 4.7979660E+01  2.7410133E+00
 4.8011299E+01  2.7696457E+00
 4.8042938E+01  2.7649546E+00
 4.8074577E+01  2.7612607E+00
 4.8106216E+01  2.7704997E+00
 4.8137852E+01  2.8364780E+00
 4.8169491E+01  2.7987211E+00
 4.8201130E+01  2.7647002E+00
 4.8232769E+01  2.7898762E+00
 4.8264408E+01  2.8039930E+00
 4.8296047E+01  2.8561985E+00
 4.8327682E+01  2.9254251E+00
 4.8359322E+01  2.9480188E+00
 4.8390961E+01  3.0041683E+00
 4.8422600E+01  3.1139119E+00
 4.8454239E+01  3.1749380E+00
 4.8485874E+01  3.3132017E+00
 4.8517513E+01  3.6041253E+00
 4.8549152E+01  4.2753220E+00
 4.8580791E+01  5.3070502E+00
 4.8612431E+01  6.9364781E+00
 4.8644070E+01  1.1287904E+01
 4.8675705E+01  2.2417566E+01
 4.8707344E+01  3.5614250E+01
 4.8738983E+01  3.7157135E+01
 4.8770622E+01  3.4465237E+01
 4.8802261E+01  3.0450041E+01
 4.8833900E+01  1.7806444E+01
 4.8865536E+01  9.2641516E+00
 4.8897175E+01  6.5369749E+00
 4.8928814E+01  6.6596246E+00
 4.8960453E+01  8.9603271E+00
 4.8992092E+01  1.0136532E+01
 4.9023727E+01  8.9813738E+00
 4.9055367E+01  8.0732422E+00
 4.9087006E+01  6.1953535E+00
 4.9118645E+01  4.1221075E+00
 4.9150284E+01  3.4021080E+00
 4.9181923E+01  3.0834341E+00
 4.9213558E+01  2.9459312E+00
 4.9245197E+01  2.9247079E+00
 4.9276836E+01  2.8282533E+00
 4.9308475E+01  2.8170464E+00
 4.9340115E+01  2.7545874E+00
 4.9371750E+01  2.7736697E+00
 4.9403389E+01  2.6765683E+00
 4.9435028E+01  2.7323084E+00
 4.9466667E+01  2.7699013E+00
 4.9498306E+01  2.7547619E+00
 4.9529945E+01  2.7098057E+00
 4.9561581E+01  2.7385948E+00
 4.9593220E+01  2.6724863E+00
 4.9624859E+01  2.6792445E+00
 4.9656498E+01  2.7238779E+00
 4.9688137E+01  2.7257030E+00
 4.9719776E+01  2.6752560E+00
 4.9751411E+01  2.7159719E+00
 4.9783051E+01  2.7538512E+00
 4.9814690E+01  2.7193878E+00
 4.9846329E+01  2.7640905E+00
 4.9877968E+01  2.7696428E+00
 4.9909603E+01  2.7881684E+00
 4.9941242E+01  2.7189572E+00
 4.9972881E+01  2.7583809E+00
 5.0004520E+01  2.7967987E+00
 5.0036160E+01  2.8748844E+00
 5.0067799E+01  2.8924584E+00
 5.0099434E+01  3.0955660E+00
 5.0131073E+01  3.3049879E+00
 5.0162712E+01  3.2338099E+00
 5.0194351E+01  3.2234414E+00
 5.0225990E+01  3.2136788E+00
 5.0257626E+01  2.9636371E+00
 5.0289265E+01  2.8193591E+00
 5.0320904E+01  2.7353616E+00
 5.0352543E+01  2.7888622E+00
 5.0384182E+01  2.7605333E+00
 5.0415821E+01  2.7708569E+00
 5.0447456E+01  2.7229116E+00
 5.0479095E+01  2.7565701E+00
 5.0510735E+01  2.7541265E+00
 5.0542374E+01  2.7623553E+00
 5.0574013E+01  2.7501664E+00
 5.0605652E+01  2.6774929E+00
 5.0637287E+01  2.6616063E+00
 5.0668926E+01  2.6858971E+00
 5.0700565E+01  2.7360346E+00
 5.0732204E+01  2.7166736E+00
 5.0763844E+01  2.6998510E+00
 5.0795479E+01  2.7703788E+00
 5.0827118E+01  2.8754387E+00
 5.0858757E+01  3.0857377E+00
 5.0890396E+01  3.2439237E+00
 5.0922035E+01  3.2658124E+00
 5.0953674E+01  3.2080510E+00
 5.0985310E+01  3.3893538E+00
 5.1016949E+01  3.3035119E+00
 5.1048588E+01  3.5770414E+00
 5.1080227E+01  4.2091351E+00
 5.1111866E+01  6.1358314E+00
 5.1143501E+01  1.2757025E+01
 5.1175140E+01  2.2525248E+01
 5.1206779E+01  2.1753117E+01
 5.1238419E+01  1.6269308E+01
 5.1270058E+01  1.4864668E+01
 5.1301697E+01  1.0346911E+01
 5.1333332E+01  5.7816658E+00
 5.1364971E+01  3.9511406E+00
 5.1396610E+01  3.1592290E+00
 5.1428249E+01  3.0262110E+00
 5.1459888E+01  2.9660769E+00
 5.1491528E+01  2.8675394E+00
 5.1523163E+01  2.7194576E+00
 5.1554802E+01  2.7342322E+00
 5.1586441E+01  2.7100873E+00
 5.1618080E+01  2.7199893E+00
 5.1649719E+01  2.7012146E+00
 5.1681355E+01  2.7054031E+00
 5.1712994E+01  2.8663747E+00
 5.1744633E+01  3.0099783E+00
 5.1776272E+01  2.9651389E+00
 5.1807911E+01  2.9521863E+00
 5.1839550E+01  3.1669002E+00
 5.1871185E+01  3.2246625E+00
 5.1902824E+01  2.7792852E+00
 5.1934464E+01  2.7925727E+00
 5.1966103E+01  2.8206286E+00
 5.1997742E+01  2.7449915E+00
 5.2029377E+01  2.6542234E+00
 5.2061016E+01  2.6733978E+00
 5.2092655E+01  2.6328394E+00
 5.2124294E+01  2.6894190E+00
 5.2155933E+01  2.7491059E+00
 5.2187572E+01  2.7594869E+00
 5.2219208E+01  2.7054994E+00
 5.2250847E+01  2.8885269E+00
 5.2282486E+01  2.8566625E+00
 5.2314125E+01  3.0379982E+00
 5.2345764E+01  3.2007017E+00
 5.2377403E+01  3.5330224E+00
 5.2409039E+01  4.4156604E+00
 5.2440678E+01  7.2149053E+00
 5.2472317E+01  1.3891534E+01
 5.2503956E+01  1.8390987E+01
 5.2535595E+01  1.5223482E+01
 5.2567230E+01  1.3149991E+01
 5.2598869E+01  1.2277334E+01
 5.2630508E+01  7.5233846E+00
 5.2662148E+01  4.6072469E+00
 5.2693787E+01  3.4925258E+00
 5.2725426E+01  3.1667254E+00
 5.2757061E+01  3.0123858E+00
 5.2788700E+01  2.9210217E+00
 5.2820339E+01  2.8556542E+00
 5.2851978E+01  2.7700984E+00
 5.2883617E+01  2.7289217E+00
 5.2915253E+01  2.7584434E+00
 5.2946892E+01  2.7366786E+00
 5.2978531E+01  2.7310395E+00
 5.3010170E+01  2.7991385E+00
 5.3041809E+01  2.7727571E+00
 5.3073448E+01  2.7836385E+00
 5.3105083E+01  2.9560199E+00
 5.3136723E+01  3.2794540E+00
 5.3168362E+01  4.4647994E+00
 5.3200001E+01  5.9699693E+00
 5.3231640E+01  5.6636910E+00
 5.3263279E+01  4.8125010E+00
 5.3294914E+01  4.7465062E+00
 5.3326553E+01  4.0648155E+00
 5.3358192E+01  3.2365282E+00
 5.3389832E+01  2.8508294E+00
 5.3421471E+01  2.8066499E+00
 5.3453106E+01  2.7416518E+00
 5.3484745E+01  2.6774921E+00
 5.3516384E+01  2.7041135E+00
 5.3548023E+01  2.7052255E+00
 5.3579662E+01  2.7310159E+00
 5.3611301E+01  2.6773045E+00
 5.3642937E+01  2.7240441E+00
 5.3674576E+01  2.7750072E+00
 5.3706215E+01  2.7544379E+00
 5.3737854E+01  2.7874455E+00
 5.3769493E+01  2.8308215E+00
 5.3801128E+01  2.6870673E+00
 5.3832767E+01  2.6404212E+00
 5.3864407E+01  2.6219182E+00
 5.3896046E+01  2.5067327E+00
 5.3927685E+01  2.6107197E+00
 5.3959324E+01  2.6252403E+00
 5.3990959E+01  2.6161549E+00
 5.4022598E+01  2.6132669E+00
 5.4054237E+01  2.6530972E+00
 5.4085876E+01  2.6721573E+00
 5.4117516E+01  2.7290595E+00
 5.4149155E+01  2.9327729E+00
 5.4180790E+01  3.1594424E+00
 5.4212429E+01  3.8055656E+00
 5.4244068E+01  5.1920123E+00
 5.4275707E+01  7.1986604E+00
 5.4307346E+01  1.0679255E+01
 5.4338982E+01  1.1441712E+01
 5.4370621E+01  8.8495436E+00
 5.4402260E+01  8.3677549E+00
 5.4433899E+01  7.0859900E+00
 5.4465538E+01  4.8762498E+00
 5.4497177E+01  3.7210827E+00
 5.4528812E+01  3.2007830E+00
 5.4560452E+01  3.0250642E+00
 5.4592091E+01  2.9085207E+00
 5.4623730E+01  2.7520351E+00
 5.4655369E+01  2.7876813E+00
 5.4687004E+01  2.9111805E+00
 5.4718643E+01  2.8571358E+00
 5.4750282E+01  2.8030605E+00
 5.4781921E+01  2.7269983E+00
 5.4813560E+01  2.6243320E+00
 5.4845200E+01  2.7150517E+00
 5.4876835E+01  2.5958614E+00
 5.4908474E+01  2.6710997E+00
 5.4940113E+01  2.7185695E+00
 5.4971752E+01  2.8629334E+00
 5.5003391E+01  2.8014615E+00
 5.5035030E+01  2.8077512E+00
 5.5066666E+01  2.6339195E+00
 5.5098305E+01  2.6904986E+00
 5.5129944E+01  2.7131197E+00
 5.5161583E+01  2.6501348E+00
 5.5193222E+01  2.8519807E+00
 5.5224857E+01  2.7706532E+00
 5.5256496E+01  2.8153696E+00
 5.5288136E+01  2.8388839E+00
 5.5319775E+01  3.3457994E+00
 5.5351414E+01  3.4009130E+00
 5.5383053E+01  3.7489274E+00
 5.5414688E+01  4.8228440E+00
 5.5446327E+01  7.1603084E+00
 5.5477966E+01  1.3951622E+01
 5.5509605E+01  2.0909851E+01
 5.5541245E+01  1.9388744E+01
 5.5572880E+01  1.5284862E+01
 5.5604519E+01  1.5536175E+01
 5.5636158E+01  1.0444922E+01
 5.5667797E+01  6.5583086E+00
 5.5699436E+01  4.3319983E+00
 5.5731075E+01  3.5397570E+00
 5.5762711E+01  3.2451875E+00
 5.5794350E+01  3.0050490E+00
 5.5825989E+01  2.8766196E+00
 5.5857628E+01  2.7071495E+00
 5.5889267E+01  2.9384463E+00
 5.5920906E+01  2.8945587E+00
 5.5952541E+01  2.8233202E+00
 5.5984180E+01  2.6588926E+00
